51.6806712655985,20.5788178015775,0
45.1637957260451,11.9433331349289,0
42.811087276236,13.2551818390265,0
47.7737022333832,15.954347278061,0
47.071758955514,12.4224267575586,0
38.8721095485998,14.1339658484733,0
46.7359306887756,14.5816765119994,0
50.8590973520852,17.7604099717055,0
42.3917099945081,19.9388558712528,0
45.2711063934109,18.1948120931487,0
43.137903004382,22.1924805025377,0
46.1666697156382,20.2562876317572,0
49.395030571323,16.781826116717,0
42.8896818605267,29.1328539448955,0
46.8893980721722,17.9581260531606,0
42.088447532674,21.256221419308,0
46.7912839661768,12.8265010918674,0
46.9654692181973,12.0134737218245,0
37.4203579741154,15.2849324563417,0
44.7165024864144,11.8553469098473,0
41.9988985522908,15.1953813423817,0
44.3009681704807,16.7469348032527,0
46.4386980259677,9.76939947926196,0
37.8240048156889,10.5806312278548,0
41.3943711700384,15.4080183865753,0
43.2308894712944,19.7539690288624,0
43.9554987307035,21.7516841785419,0
45.10605757733,11.9093818531759,0
43.5803897007327,13.385695032322,0
42.6069523649307,16.1920382554997,0
41.8581245534425,17.8180908078078,0
43.2028095935737,16.0138298908073,0
38.2654379903456,18.0255880524963,0
37.6900925957337,17.9459319996321,0
32.5231754134141,20.6423506393114,0
40.0590539021211,18.9784512933527,0
34.608274138002,19.4218617577526,0
35.6454252894152,11.9477997480896,0
32.4414778329733,14.4547031536302,0
34.2620032880482,12.5033455729026,0
39.9871540393926,12.0816559229251,0
34.8928797535102,15.0535705500504,0
36.4424345741376,12.5255934584834,0
31.7121284326157,12.1912016965829,0
36.2256673654634,12.6929961897482,0
39.1188714865246,12.8677324164016,0
33.0439524379895,14.3589804566138,0
34.2978650654956,11.5828124248227,0
33.7012106051409,13.775809613593,0
36.4171718236057,12.7654954447522,0
36.5653341810316,11.0413248218216,0
30.7720755682732,13.0447550153314,0
35.0601613484157,10.8651853468251,0
30.8409697641109,14.4772295182147,0
35.5374705173698,11.3359466488938,0
35.4582147850881,21.2732025533489,0
32.3572038079079,13.455189883625,0
33.4483087349811,10.8769887546327,0
28.37555356901,12.4632415574091,0
34.1973162263972,11.1019537652159,0
37.3447448046055,23.6632020524788,0
31.2732521445677,13.032651910391,0
45.8746723112666,17.5702251171932,0
52.7161421026239,22.9944106051334,0
38.6741997077894,11.2243513316852,0
36.7375565982838,12.1077310766139,0
30.2883912266007,12.9535060911162,0
32.6267592733625,10.1383057062291,0
30.2822932095624,9.79214132865942,0
31.5205696601839,10.7235645746792,0
28.0208895669582,9.4647025096123,0
25.1773453795448,10.7387219741769,0
31.1146297444574,8.44754602436085,0
27.6109240881051,9.85551439439525,0
30.3710928333358,9.10111418272985,0
29.3571834543093,10.168994094992,0
28.9037707158249,10.7213610970982,0
29.0990630993483,9.08918134593611,0
28.8988185022003,16.0598213426857,0
29.7818241291318,9.35963558406102,0
31.0822586948614,19.461386626195,0
41.3321707561921,26.4732302373291,0
30.3307061113291,9.86370999384313,0
25.0590031592442,11.2157722078387,0
31.089601729453,10.5652147690919,0
28.5144174795105,11.9956595951685,0
31.8223016947795,10.9573007725795,0
33.0568987700639,9.21054479724405,0
27.5208662553955,9.93962047941778,0
30.9924363430277,9.3427785972912,0
30.4004717704877,12.4781788615546,0
33.7977179175857,10.5236191034904,0
36.1554418259757,13.9867113886304,0
27.9157538802478,17.6373369489194,0
32.0339172190749,20.4378774886401,0
31.8093920729696,16.7307872738233,0
32.9800370466683,29.9772448524318,0
36.7753726880671,22.2914390821692,0
26.9612026960337,12.7901226615709,0
33.4494200213478,12.5366943545705,0
35.570982443244,17.5974872774746,0
34.3845718506483,11.4204205834016,0
27.2777094154001,10.2663649702925,0
25.1591473154548,12.2290965847385,0
29.3629100649234,9.92681382078288,0
25.1697064497655,11.3921504468147,0
27.6236719650321,9.64455211809525,0
28.7725990762453,10.1701690460261,0
24.6088954237245,10.0242222439757,0
26.6056167612096,9.42463396259386,0
23.9945296828903,14.49650911504,0
26.1716361640453,9.67688152442657,0
28.9810787908896,10.3499510341969,0
30.3607174248514,10.9578917065369,0
29.8804358030205,8.89137996971479,0
25.7928228529597,8.35205720134554,0
32.2947452700024,8.92194632027585,0
28.2466224938577,11.4580236071092,0
27.1111668971693,10.5127922870033,0
27.2565942377199,9.22246942010723,0
26.5545038365336,9.91559049543022,0
28.5617882317762,10.2679010146879,0
25.1433006500556,11.8873543590468,0
28.1422734674333,11.7385996062844,0
26.1932254704481,11.1066738492262,0
23.8508406973408,11.2893472863051,0
28.3094773423066,10.9028986059583,0
27.0747753809817,11.5046083026643,0
99.508005956507,15.4675696295886,0
162.686888382563,28.3432509753058,1
126.682047290677,32.1457590074802,1
137.389033218336,25.7057338273151,1
122.614834206865,17.8331361953087,1
121.511434134496,27.0921200113956,1
128.873813420721,24.5276434150841,1
125.931511754274,28.5805196221481,1
115.450002226569,26.6363869814132,1
123.954713725226,17.7737766180711,1
124.477282340668,25.893464106641,1
114.961976821115,28.7103913264876,1
126.546558185801,25.754900031505,1
149.669951010931,23.9833080486669,1
135.771718376632,24.7135159817923,1
120.198697475159,29.3228033981937,1
121.683495929746,25.5002636227282,1
120.273220790585,23.9653202535836,1
122.584102435041,23.203673994668,1
111.744258796118,24.3168640567661,1
129.18703747987,26.3861015660722,1
120.105427234594,21.42770831061,1
118.885536018279,26.4889740550262,1
125.634768576877,26.1097634034397,1
112.792847654697,27.3134169386752,1
113.724099723265,30.7593344129846,1
102.198244694431,26.6553342304052,1
111.851456248996,26.1214013324596,1
108.448376382342,37.3146489966482,1
115.695194508347,39.271865430532,1
123.491935398565,26.5927887824471,1
106.361699870561,22.8882313790964,1
102.824488359518,22.3892195024031,1
112.196542272993,27.4555264122117,1
107.743718275271,33.4321537363297,1
114.21904279626,25.4705442573721,1
108.693327779821,19.9214101441037,1
107.245832715491,22.0480269844955,1
121.734493559296,23.2847548590677,1
112.772982265052,24.5816959629745,1
99.7449148564077,27.470055310597,1
115.314978264961,23.4441082434776,1
105.011090034706,30.0979701057441,1
108.547387612448,22.8302849137051,1
118.816885324807,43.84124722072,1
118.941867642365,23.9107668535844,1
117.092033767594,24.0016006493447,1
114.121772831875,22.6497142104828,1
117.556129137071,27.3099923249467,1
119.764759618805,31.010505208703,1
121.943224241265,25.9681817156658,1
126.576192710244,31.5273255764715,1
119.551155960947,27.7128098536601,1
120.992323499485,41.1606151810454,1
130.454133729948,39.8456876478468,1
129.540134248129,32.6899086988537,1
123.857569755603,22.712348541833,1
127.567865179571,23.9865768059803,1
128.793196040451,23.4904255055587,1
126.503856318217,28.9500943063392,1
147.164671892819,28.0795350013196,1
141.370113370609,25.586327518042,1
93.2805384398452,26.5232885151094,0
64.8318154585808,17.6554487917302,0
73.1415264663964,14.7670076016875,0
67.0972263245244,17.9216636852078,0
75.5147089096538,15.5343250783644,0
77.4186628049594,16.2395891318705,0
70.7995259467946,18.0711169675458,0
73.7993981693868,14.4656544013956,0
70.1891243760757,15.5955121356216,0
72.8644307301514,11.9890499343047,0
69.5654278089425,16.3664633408262,0
69.783582577951,15.6864879957561,0
65.8620242635935,11.9399561079769,0
61.533422275741,15.836924192817,0
66.7087310694325,24.8266057791838,0
64.7878674756162,33.5385032849251,0
69.7569113029864,31.4328658977157,0
67.2745574091984,21.3209054078276,0
65.363267137995,21.4468461208629,0
61.7899134673207,15.1304000616925,0
60.3005880510076,14.2912603954982,0
102.069211187845,22.4494963797658,0
93.436856929509,27.5270155080658,0
106.264771046486,23.8052778375278,0
68.6755143733465,23.2601547543004,0
90.7875219990121,27.7772067334367,0
85.3618784839587,23.7049975578126,0
100.211431120861,20.3041580268607,0
71.1607761692605,16.1492449375,0
60.1001592727355,14.3847340213644,0
53.8794702907608,14.469733172291,0
68.7496544673468,19.9841457854709,0
56.5583273593602,14.05917476221,0
81.8385955686458,17.4535581574293,0
59.9206774461094,13.7888861407455,0
77.4638251624236,17.0097810602362,0
70.7546608885445,18.6368321257692,0
76.2668102503671,19.7002634215468,0
76.6405390584993,17.3648245983794,0
60.8559983324041,18.0278708589986,0
67.879100358482,14.0954420032186,0
71.4529628291499,18.3900365776049,0
66.3786416524879,17.8875068214629,0
67.4509195093898,26.0809008056813,0
65.116092160196,21.0364482348027,0
65.7323916470733,18.1709916650496,0
57.031815798977,12.6459623385451,0
54.586105384345,14.1825059965228,0
55.5177942942309,13.2696987648752,0
57.6126499503235,16.0588591046637,0
71.155880700378,20.6000218283462,0
67.0052926793027,16.7197769214255,0
54.6567870848484,14.2138557667013,0
55.5943442422209,12.0451763678172,0
56.5043965710309,15.1842230698929,0
63.8853706935252,13.2007474006405,0
60.6159362954266,15.382089542239,0
57.5723403797984,13.4674077574553,0
53.3537193472439,10.789105893755,0
57.8426266271855,12.8166983365352,0
64.5982623011588,13.6944527507817,0
66.3178550064473,16.6850525097309,0
62.4823202227739,13.8909922842239,0
56.2112509020251,12.3392706242573,0
54.3751621489593,12.319641701181,0
55.7232289579133,15.8896012751009,0
53.8940586909554,12.1394798573964,0
65.3854171582474,14.644092468204,0
60.9640751521291,13.7847131404451,0
55.5586172132873,11.1682296257459,0
72.3931182694897,18.3462821941283,0
74.4290791949386,18.3694784141404,0
73.4909672941033,21.2244757619776,0
85.3713159798618,21.5277923852059,0
95.0230274655968,21.6170320292712,0
94.7107372059672,23.4140263952117,0
89.4239322138116,23.6888385763907,0
86.4175964191777,22.8563975847525,0
80.5710151044206,24.7341534224586,0
89.4409191455493,24.7917181441394,0
89.1251550850914,24.984303883824,0
81.6648505869866,22.725409766723,0
82.3047486858586,20.856876760796,0
85.6041126690795,24.8591918205219,0
92.5262718269862,20.5557314883253,0
72.4008213168809,20.4155863236688,0
65.1023270179764,18.1727928253801,0
82.0659465898138,19.6079245523612,0
81.7418478774999,39.5125089501669,0
65.0970049365551,26.3584637766309,0
69.9635261170364,41.5880250803617,0
74.6818259764993,27.3266204272698,0
99.5096732631802,14.681798105192,0
72.2454889794163,17.0702236563654,0
70.0647954569908,13.4810623935827,0
69.8491966595017,16.0046639303208,0
64.2836564552467,14.5874898531943,0
56.16677386083,10.438822634727,0
68.5542782080383,15.6056180623569,0
73.0587362221356,13.3143818899889,0
63.7009296070068,16.1808321573398,0
69.7579589340391,15.8122840511609,0
168.229758671005,29.7470399454561,1
159.674323868628,36.9922416796569,1
146.827613977406,33.1857516892695,1
151.801410858731,30.4060276989891,1
116.937281273602,42.5193710062545,1
165.960933960945,31.1988681386972,1
158.281387801426,39.5734304686456,1
149.464425049137,31.7821044304286,1
143.841601747337,36.6882889628591,1
149.860162012948,32.9431015825614,1
124.912940262447,27.4125302708953,1
143.034520180627,31.6074623554071,1
154.506465627227,33.0895613450141,1
136.490488754718,46.0508967772779,1
154.212960683374,28.6900650893897,1
141.348298724476,27.9829324154826,1
173.407869581494,25.2258961541397,1
169.249292876047,25.0811097418874,1
173.845179311545,35.9102363399884,1
149.959270627392,27.1841112031553,1
132.134227643445,22.3615975294448,1
140.935574341055,24.157018604582,1
136.176015374472,19.34032135429,1
142.404965482145,31.6271880459985,1
132.586376117689,25.1367196672907,1
129.032787171334,24.0399738457961,1
131.101973391072,23.9444546461684,1
129.032238888756,25.1897629982585,1
129.351847490391,24.449382258577,1
135.767732811802,22.7365461787141,1
135.326729361467,27.7140939170071,1
125.27032873621,28.1526403437058,1
128.271170528082,33.6162858099278,1
147.867901149678,37.5875107116481,1
147.822640303873,26.445081195821,1
149.979135468674,32.3642607480911,1
139.244576795874,28.5940450626196,1
146.573940779551,30.7242963331234,1
131.000528894042,31.7012197583042,1
131.890436520337,36.8612166590912,1
133.507544292657,42.3228397272409,1
171.875479781983,37.3727832913729,1
158.169315912416,24.5115385997837,1
151.232641782237,40.1291576037553,1
162.307605422498,34.6270446946887,1
137.445428548144,32.8643412066907,1
136.037594098448,42.2539673905257,1
152.726644962039,28.525593865672,1
146.62799068103,29.3978149371397,1
132.625514531489,30.3919971453788,1
138.531899708265,29.1776493156292,1
150.946222299492,35.8150104402527,1
152.316093461154,34.2797519416325,1
178.554432041036,36.3126626412388,1
154.539968332698,27.9193353032441,1
166.422279197833,47.967813880807,1
178.290016045298,33.5364864704355,1
165.798337449082,38.2316481195421,1
183.703777267734,31.2925883181345,1
168.857432684271,34.9065823666459,1
152.391812554299,35.483519981512,1
158.730247021696,30.1841326883518,1
165.928036194052,41.0404475461961,1
150.065678142126,31.265041377532,1
157.494584617385,26.0585915154224,1
160.886981777697,38.1590499471359,1
155.505201110021,34.9998613075625,1
169.625308472894,34.2226734075497,1
178.803178370233,34.0498053000208,1
155.922834534504,38.3326075191773,1
172.550712829752,34.6524098250787,1
187.122595870191,33.0396975540819,1
114.565820794589,32.4628857742201,0
108.283387061737,29.134834781562,0
109.888109465871,31.8726899486282,0
89.0949673376972,28.8722252836507,0
101.132489129908,28.844223651353,0
101.546844752643,18.9560925981578,0
107.601963223323,33.7112771204977,0
112.72076784806,35.6851208019041,0
89.4124381974935,34.245662994301,0
122.258257769311,23.725436921467,0
112.242826143462,17.8911504702209,0
110.859366271588,37.4469281507506,0
112.521078568628,25.2377602514471,0
84.210443179891,28.5846414786817,0
112.900178573682,34.2795884867762,0
117.499583813073,19.3011230498295,0
91.7294799225986,26.2815875446068,0
110.46151206996,21.0078404789037,0
102.303415602515,25.3248373951796,0
109.845524267715,19.5668662129517,0
119.462506420095,25.0476524426737,0
105.695241925851,27.933455810117,0
98.4893233642445,33.4595954774665,0
112.947373521204,19.1326914033176,0
91.0577328951558,35.8210756703033,0
107.737442692788,23.4643475849714,0
93.9478256952409,31.8701792690286,0
111.183204740728,29.1134996146421,0
106.645403435048,25.0630407405631,0
88.5023684566519,24.02156147166,0
90.7842487123168,23.0384500110822,0
107.523332416012,30.318258752907,0
113.446677479901,32.3596091693518,0
103.391018401121,29.1238881335739,0
96.1563795514352,25.7690285792997,0
102.233211066528,24.7438584084415,0
110.298731343895,26.3403817001333,0
108.830994867831,26.1001190840583,0
94.0783297684207,29.2581537469508,0
89.639294567216,34.6944005784547,0
108.210618157288,21.14536845793,0
82.9015980024868,32.8422779220673,0
100.649547315938,19.3840982305873,0
87.4718792720004,28.1461703567903,0
71.2098963086015,22.7255235048575,0
95.8515609630293,20.4507648075025,0
85.8014721059292,35.9342798971324,0
94.758442740951,40.0915338590393,0
82.4017750807565,11.0639619853508,0
86.3314045709629,18.3201715484696,0
67.8776226197355,9.65678001964985,0
83.6298349909957,18.9918579725285,0
72.8906887148341,13.0717543439386,0
85.0515840831843,15.1729275573521,0
75.1642271052481,17.6896905130959,0
79.1038767640367,13.5031013996002,0
79.298528061165,19.5874083718249,0
74.6633678109825,15.2311135376129,0
72.6276702824062,11.2347632257531,0
70.4644703929914,16.4128045027099,0
78.2438183050131,20.8743934593106,0
75.0721434769314,15.1077954665596,0
79.8003360390122,18.2928474118256,0
68.536755006643,12.0709954365374,0
60.4090914023058,10.7880399787078,0
61.6448893099912,10.3504909146929,0
63.3751398447848,13.4854030549913,0
67.5682899860142,10.1647239684774,0
71.316725056273,16.4844853880544,0
66.4073888817426,15.3074362743671,0
61.314529592375,11.4853485071126,0
62.0544637772028,9.11476150331498,0
64.5899849919634,11.5224812417701,0
65.6252535956958,12.0532020153525,0
60.2085434874423,11.2544143096516,0
58.0741916290708,7.63693912033543,0
59.0254200285791,8.13702258205739,0
63.2445163734548,7.89354232619339,0
65.8912735984938,12.5460751269769,0
64.6621854542382,9.49943618250147,0
59.4469089475434,10.4279577005592,0
58.4540441668882,9.84352580668326,0
66.6930331263597,10.8870505094245,0
62.1984954481383,11.9410066758088,0
60.5630722815394,8.52393625255293,0
61.2583610938746,9.4824065404655,0
62.004518369498,10.6301267506458,0
69.9110020394893,10.7455509891133,0
80.8472394625226,22.9032110402476,0
75.8211541578948,17.5124133068785,0
83.6376179215843,21.7211586163894,0
88.1232918335903,18.3990949677476,0
93.0994454843882,18.6119241441791,0
88.9722143558499,18.9699737316945,0
99.2999068425653,18.3347322601859,0
80.4496194236707,22.1038648823219,0
79.5813146169701,18.3200690067773,0
90.1919302898582,17.7400318109139,0
93.1682435150692,17.3496793721901,0
87.3270312345017,24.7408514412303,0
84.4624458132726,15.3765078462937,0
91.7590036422269,17.8206115676632,0
83.2065757252301,15.1683777524898,0
76.7376852108253,21.3471418663349,0
82.2301171380359,16.9786342529391,0
78.1541229255738,32.2698472270022,0
89.7463171885262,23.2456794652403,0
76.4696992001622,39.7186951501205,0
69.4355041642147,23.370183965016,0
95.3254406013596,27.7901545049008,0
94.1250941675772,19.3708936767649,0
99.6314052792045,20.0078853865815,0
105.38420121975,30.0191705567063,0
106.313145065577,18.7117566862301,0
89.5384996540151,22.9288187449755,0
64.332527628043,15.2600717590139,0
75.0409663799335,19.5230161438316,0
68.6746794396597,13.7501319327599,0
63.7253579401361,9.5338183059769,0
55.7598799386953,9.13583891453444,0
86.417847995367,16.9161203923562,0
96.1735311308984,13.0380990271067,0
92.2573032237455,11.277752004348,0
80.7803390973841,25.5808739851053,0
82.1274219078351,26.0756047790543,0
90.0602575960067,21.3654596707412,0
78.5692113809809,26.6393456657318,0
96.5674256733756,22.9386050267729,0
105.169124295315,17.2658789824294,0
92.2346000038172,11.5627163568035,0
98.5098958108906,12.6236237731495,0
83.9524484298178,32.8070088597234,0
81.8851640405578,23.3619107761612,0
76.3520476860745,22.4571930280606,0
69.5858407787728,21.2613696130445,0
75.8194300353804,27.8508007145498,0
93.2245674919258,21.4746298881416,0
88.3903513137288,12.3301482118073,0
85.4702706125273,10.2556055721839,0
79.3473240925739,25.4075288644746,0
85.1825789525853,23.4829540916162,0
77.3375286185496,26.267819263054,0
71.8501502132435,25.8588257535119,0
96.3165527443849,16.3553334606332,0
95.2630453009417,12.9834986954646,0
84.0187795221228,13.5438336851519,0
89.7341484041962,17.8195254851881,0
85.6990895046991,30.1327999343785,0
79.2930691241626,25.4468344973368,0
77.1820682039019,23.7949606897537,0
67.3182073502854,24.2920921015866,0
68.4844769442082,32.3424174413079,0
98.1783033153481,14.2463381691968,0
76.0122227761014,12.0798176688078,0
88.5927125597922,12.3265782270225,0
75.9701095976772,28.5847961183303,0
76.9468211553391,29.00191142173,0
75.5791885537079,18.0827753014541,0
79.1768055664255,21.2877390510785,0
92.9338934311451,14.7475248682202,0
88.1910803902203,11.0404877666221,0
81.9038216640542,14.1703964223747,0
81.7639140872647,11.3381152173837,0
75.1654400506391,42.3828183816823,0
75.5571907442934,21.901109052274,0
76.2724046309295,18.2622755748477,0
71.9734007756256,18.453801628148,0
101.33159941057,18.0619221630614,0
77.1972030215456,11.4798953096066,0
84.4624220283838,17.7145943006946,0
86.8221246993409,13.7984408987084,0
79.7605713509412,41.7625233597245,0
63.7146201145813,20.8488343870406,0
70.7657322265144,22.0259827138668,0
66.7398317126183,19.8920002043626,0
100.414000561832,18.1109660342339,0
85.8451726690406,12.8051665038472,0
81.6105816862303,10.7954366412946,0
84.9327576244244,15.1657829702195,0
77.0964926754006,29.6483373055361,0
111.319126367178,26.5912241238668,0
157.418265204387,35.3522804306451,1
151.142869982502,34.7473840493308,1
143.549389471666,41.1637539854498,1
129.915598195635,25.1055476133335,1
186.574151822193,30.2498972801589,1
176.616943855427,27.7041832859648,1
151.047155755321,23.8819961701334,1
148.365366153212,25.8045518067391,1
144.385814725005,26.8388849777782,1
147.174229830293,24.238199402634,1
161.068576969692,29.1631409043062,1
152.685548224427,27.84260767646,1
149.91045870792,28.4707055433967,1
144.381759249161,35.6497669745557,1
144.550192122644,29.1347038900601,1
150.323114795682,26.2188527846779,1
142.671585926385,20.560226228665,1
138.298835190475,18.4801871309343,1
137.820779731737,21.6513407435705,1
139.643255648043,22.1336504095529,1
149.548501343693,28.2543761403087,1
141.30801721187,18.6357191212665,1
127.419664843958,21.229661188746,1
147.801217719259,22.9460641833486,1
145.939241368527,26.9955735759847,1
154.631259848227,24.7854922275687,1
148.634588982888,20.0011580659492,1
141.264036607744,18.8820572820496,1
141.895509867118,21.6195763733489,1
151.172530869222,23.1747820283219,1
144.602599546769,16.1753372843559,1
137.139119647489,18.9393892166469,1
123.276980002157,23.1795628009868,1
154.146418715132,21.7530006159141,1
140.20661338107,28.6936410920566,1
139.917662347956,28.7135261518037,1
154.986196756508,33.072355766127,1
157.81626161242,21.5438125892922,1
141.02587250578,26.6186180182108,1
149.265574829761,37.0228947881442,1
139.837873228753,28.3805003325811,1
138.39950478666,21.5434909023012,1
144.986621628304,24.8122780995172,1
149.023301229632,21.0693914079485,1
146.365541235767,30.2552883526348,1
150.373293361945,25.2625827219884,1
135.236591001822,18.9073600176091,1
135.761735373165,25.4821811812515,1
148.168354463193,24.5950898170723,1
127.472644049838,24.4743974549166,1
133.843536104514,23.4808061584364,1
145.603839436538,19.4961254827553,1
148.715623177659,24.6762346627847,1
166.791597897866,29.6875131918744,1
154.202768247307,24.9967138620394,1
150.225841775261,25.886124114865,1
147.165199799054,24.7778590855683,1
138.833709178917,22.9052510186983,1
169.569726623859,25.3160446079337,1
175.155052814549,26.6974054674512,1
149.71515710971,22.34712565481,1
155.396366269483,23.4739461312103,1
172.45142318496,31.2546835273928,1
167.582271753036,26.6013485433232,1
161.467645710949,20.5780127634945,1
147.262215835595,20.8813230594399,1
146.312685198018,22.3555149263309,1
150.364706670573,28.9334293841464,1
154.769626429097,23.9131826873639,1
150.031505869651,23.4453702502361,1
134.22927792212,20.2914815714989,1
164.988408063418,20.2960105033365,1
149.74091826595,27.9423493232286,1
155.578694708323,26.7060777730173,1
148.051541054536,19.3613054908246,1
140.310694092404,25.146705673798,1
158.77075537409,31.7686595222102,1
146.586435438467,25.4273780724321,1
137.708918693474,27.2647316555894,1
148.41490705319,17.5778628563867,1
149.827342268089,29.0180174857783,1
149.30354442599,22.2963047996058,1
141.138703300482,23.2177774416385,1
126.395863528424,20.446807836535,1
137.788724868301,18.4940288595757,1
144.014078902268,26.4526729213198,1
93.352803340563,18.1742579910945,0
85.3475644864734,14.7326437156616,0
81.0492799016744,12.208289197045,0
80.0641412316536,12.6608612904383,0
88.9842709825812,12.0944437649514,0
83.2870043663231,16.6979496454729,0
77.7521173637852,14.5400137730692,0
72.7717281270541,11.7915837077445,0
78.9787800976739,14.5955830104819,0
84.4766314274556,11.2547580607142,0
79.3565538229123,13.3438840294892,0
69.5212087010271,10.8034517780469,0
75.787361500844,12.9020592223848,0
74.429436497602,13.8064646821724,0
80.1702630509914,11.6213658987372,0
74.1948913665784,11.8822538646979,0
69.4397044920304,8.13968765873737,0
75.6785212885454,9.86359702117604,0
78.8817514435844,15.017326849985,0
79.8106141256412,12.9056819988784,0
73.0457404453776,9.33273009033935,0
66.5059433308464,8.37872131966714,0
75.4358713598281,9.82071398054864,0
75.4069173169325,13.8960993414266,0
74.0672598871724,11.8008007826021,0
66.7558564930737,9.42241310907668,0
66.2485985854332,10.1152928331047,0
78.6004290832361,10.3912135034937,0
75.6409614022731,14.6454911813309,0
69.6024171225073,12.5328502865492,0
94.9253429351852,17.739569074106,0
106.193771710394,25.3681889378569,0
115.513959604684,19.9549706950153,0
89.8116932310878,14.151872766975,0
62.8921771839607,11.4724419698867,0
67.5467533595704,12.022663050348,0
71.4025542036158,14.0480401874243,0
76.4895518060094,14.900919015163,0
67.7338552431891,13.9011316956774,0
61.2488957446313,8.40774006747666,0
74.9682613671775,14.689595499663,0
73.1981943489115,18.0510229768203,0
74.004205738724,13.8663037176934,0
66.5966291147619,12.4934312402832,0
64.8375009545651,9.36233442799989,0
73.2744324205218,11.5974092825268,0
71.6662626537165,16.2102780646658,0
73.303584705697,12.6055500967032,0
67.2303393454267,11.463418673972,0
63.8069155901367,9.48168828797091,0
70.7488838014389,9.50055320402814,0
67.4724009346197,14.7987859346071,0
71.329910222507,14.9383575793666,0
65.7549425948069,12.1635083968746,0
66.2455801971304,13.0077433318988,0
72.7630725145615,12.4104610548522,0
90.1959491820893,22.3321828481013,0
78.3999661638115,21.750465488534,0
80.2350710002811,24.3043145806578,0
84.9034432054949,18.8300209478492,0
75.5631909512092,12.1980090982126,0
65.6966477359545,9.85341218943412,0
60.6161160150323,10.2420131676559,0
67.4085032188763,9.90826067105975,0
69.2420475754972,12.7116824703971,0
70.9893856168771,12.4564583268103,0
64.1769055230119,10.5251235299842,0
65.4889062020627,10.5819804611848,0
71.5112624568339,16.5667552679398,0
68.9928115383113,15.4473738807262,0
68.2539138980148,15.4164570275519,0
59.7882253003499,16.5165814942888,0
64.4340104420527,16.4749887702261,0
67.4880374878755,16.4693678813621,0
64.9250986354777,21.6803912227989,0
62.7542263349561,11.6677997865084,0
61.7040186639143,11.9455005364498,0
62.6732419094611,12.8836352899941,0
65.7582316863744,13.5286132167878,0
60.8139381512589,20.5816434410607,0
62.6912488499021,12.4139274060274,0
60.531821419975,10.4816811561238,0
62.4973689569202,9.77246385534146,0
70.69239796267,10.1039796519939,0
65.0295843331591,11.3825706550025,0
61.5627559490456,9.83063559325435,0
64.7413426352597,12.8245132426028,0
65.8908704371829,12.3679910252499,0
70.7638545097207,17.9629896886768,0
68.011546404724,17.7314671136294,0
57.8261761697019,13.3150815732035,0
61.6180083216768,9.82028422846498,0
62.760318817153,13.0501117290353,0
68.9364648746052,15.9220476255274,0
70.9276567337366,19.2898817310771,0
59.2851949093092,11.9449685327854,0
62.8858197427658,12.8837720447729,0
62.9193261125451,13.337745110206,0
66.8256677371703,16.4185283003158,0
64.5591360431074,17.9063064107873,0
60.5690688181256,14.4755201775184,0
59.4694322835752,8.41355345970955,0
63.7619142586463,15.0353835131672,0
65.4368924001753,15.2471946209413,0
60.5454170436749,12.3037505689269,0
58.4919622236877,8.95875931076056,0
58.8423535199069,10.8027952904311,0
60.4122202319631,12.2481577149298,0
66.7822785849499,12.6528512896821,0
64.6246174200641,11.3090397662375,0
57.2429018053383,18.3603218926228,0
68.4594697454206,26.9771143489481,0
74.2424947981806,16.904462778473,0
68.9365340191598,18.2619863718361,0
57.2489514508408,11.1485294086997,0
60.5321353790046,13.3767328057028,0
64.3545613653354,17.9893851118103,0
66.5022087972855,15.0526829667082,0
67.9594972361155,10.8723643703403,0
60.6324327008728,8.45860224472685,0
56.9794374651811,9.83751050243405,0
60.8112959650521,10.2965802150584,0
65.9642350825701,16.6926173388002,0
64.9700479578073,14.8321117629208,0
58.7960514144137,11.1077351979879,0
54.2111175032994,15.4464844122956,0
61.4577160388647,17.5086052876383,0
60.5781156797104,19.1323547728481,0
64.5961545126195,24.5001926049091,0
59.2563013082275,17.5674668194145,0
57.1441158263446,13.7517407455814,0
59.2318534999416,9.37412754043596,0
61.2929221923932,12.2021566689627,0
63.8966262580569,10.2113398471242,0
60.1270667185944,23.9463632313254,0
55.5370743537974,16.3602070810231,0
59.0174225752759,9.09075445522612,0
67.8175154990906,24.3455917510606,0
64.7781456891575,12.1965886471332,0
58.7730459879541,17.5714752283143,0
54.808102752678,8.5725834362691,0
63.0454572169098,16.4911206350299,0
62.4882001936374,13.5992369919163,0
61.6911543038537,11.237157766632,0
54.7106737851287,16.4653958369833,0
54.9015087161977,19.8520199415247,0
67.435986255989,16.1346993408214,0
61.7637075024759,14.1901571407348,0
58.8552257686891,11.6374040541326,0
55.0390811225591,10.4400231699377,0
53.9820172303918,11.0346197788182,0
60.1762433498025,17.9737872441325,0
62.3742315737038,14.8025479560776,0
58.3755891553675,14.5859986277166,0
55.0498187947026,11.9769911368262,0
54.4079266775673,19.4829829446346,0
55.63915357457,11.6406233952318,0
58.7734147515523,10.655925331587,0
61.6955434628507,24.4419979536365,0
55.4565949928365,22.9660694155894,0
53.2615275965922,14.1905440082146,0
61.9287174161857,14.3774653012058,0
55.9479041994442,19.2218886411689,0
55.3537785059985,17.0672534611893,0
56.3402916790166,20.3695548432333,0
57.1716796377067,27.0757662889078,0
59.1522653897984,16.9911540652101,0
61.0517990455026,10.0806150746235,0
52.6201730877311,13.4712379082286,0
60.7564231553458,29.8049177000617,0
56.6862191004224,13.113825258815,0
58.2773498666629,19.2744319489565,0
58.1697616514701,15.0503258321275,0
57.3598792583931,11.3477250776651,0
55.92245003666,9.00622353265399,0
55.0517672883779,14.7352538525018,0
62.0660651511766,12.6226092159982,0
58.2262097083091,15.8055470826308,0
117.1886344016,25.2653902818057,1
113.389315936406,20.169993812892,1
119.007498115181,19.4276395280313,1
114.177471332718,23.0416448672728,1
126.650834861501,27.85851763913,1
128.643222094941,27.6312904712444,1
130.026056810055,22.4561928017813,1
122.544565621758,24.4219768671011,1
131.855859340714,24.8870748114078,1
134.120018699575,20.0098247712335,1
126.950246158699,23.9830632637947,1
129.611821252509,20.9164782796119,1
115.560028207974,20.6410446807701,1
105.845065720988,23.1623895159284,1
136.821834340661,27.9686719837969,1
142.948268351073,18.8215307407651,1
133.044548115627,24.3153107922217,1
125.926517988762,20.0598979220255,1
142.497344618496,30.9264886404274,1
167.283256630645,31.6649979693908,1
163.638745473927,33.2631515541551,1
150.121728908044,23.6407385236532,1
146.717851307717,25.7728764075445,1
145.565419713132,27.9546567747766,1
147.312420550355,32.1208677393616,1
157.050245874541,27.3211348241748,1
135.999007256762,18.2018815583409,1
145.238182050041,21.733338107832,1
142.512648479906,28.3090478650736,1
146.278613865772,23.6650043197468,1
119.562924577699,17.0549224494688,1
132.464708089547,23.5103598194022,1
143.601440880511,23.5299957036924,1
149.185755086968,24.5027351674013,1
132.966366410186,31.8385789029612,1
165.951730544384,34.6793498983846,1
151.84804294116,30.5400798773768,1
162.683348066328,23.6111096461031,1
146.97009786587,28.3237562026448,1
130.414513154574,20.4439906198839,1
145.681530301405,17.9433505197463,1
134.647277744319,21.6245929611196,1
172.515348193743,28.3753894988398,1
166.259973746607,33.4732515491091,1
160.068053690723,27.0286534050412,1
155.215272362249,19.8363840398136,1
141.815638685748,19.5801427530066,1
164.632423167329,24.607865521015,1
174.999151926491,26.0275300816837,1
161.8766163286,24.7366019237524,1
155.566316383467,20.1397266945648,1
160.869595908874,25.2207607040295,1
171.267457668622,24.183918317063,1
157.688330801449,24.5685752122151,1
162.358803153526,26.2835954958226,1
147.739895461321,21.8207875987457,1
165.120139355818,29.0536292941057,1
164.743548507256,25.2084172873971,1
171.819366975489,22.464440998741,1
157.813249131293,25.8484902978929,1
161.587094137544,21.3553972171588,1
138.556006996035,26.3677544203711,1
170.670845762489,27.0702456876413,1
155.424629708248,26.1420334176672,1
151.49600106972,26.0401645590389,1
153.092403987414,23.0668748029902,1
154.252098088449,32.4333414573506,1
154.952701791129,27.9786269510593,1
144.37895013741,25.8873230652104,1
176.725471162478,32.2267365571083,1
159.459310135911,24.8078219357827,1
166.980933697098,29.3206845286827,1
162.389281738684,27.9377439357787,1
175.084683842472,29.869775528063,1
158.863083171429,25.4111879579059,1
164.337940848491,27.4672171723157,1
157.780483781948,30.4489702119246,1
161.115233153733,26.784186191654,1
164.263617399549,22.0378986376349,1
142.518342277322,26.8923320092944,1
165.540041913791,19.1548577040569,1
153.018010611367,34.6648606712951,1
176.061623942445,25.1857253719276,1
157.301671572887,19.6825995849796,1
142.834461333782,22.1420128585823,1
161.342796283671,24.7276783829348,1
173.196796615052,34.0075790345822,1
169.026278341685,28.8086859176595,1
157.947374751582,22.4254975309819,1
148.945297608104,17.5572598677809,1
167.095643521638,23.9028420899261,1
165.423913378143,29.7974198211877,1
166.155230633621,38.3821481756721,1
167.927987562295,27.9464502413464,1
152.277348876714,23.9955128221272,1
170.055405651479,28.0898302774122,1
136.967416297687,34.6212266722745,0
105.706565759982,37.0189982948094,0
101.61108044881,21.237896173821,0
100.686886543513,21.022475862791,0
123.342811959833,24.1376423300361,0
119.515620183169,24.026229099115,0
87.5226470446503,12.3539471876046,0
96.2354101712852,12.7822613408601,0
90.9062083861143,14.9143461941552,0
97.568085262829,14.4557051678878,0
87.5637640026695,11.4358343441128,0
78.4126000877303,10.7962436818809,0
87.9994598035948,11.269910257292,0
88.5518326845518,15.9758106905024,0
89.8656370657821,12.0668095964018,0
82.8233459572855,11.6488885914757,0
76.9726034653333,8.30261109031263,0
94.7798057250177,14.7358847228582,0
95.9529159745586,17.5066603288376,0
87.3758490159458,13.8957570808474,0
80.3679681054321,11.0725763839992,0
80.5883078230331,9.9405028910371,0
90.0264076900986,14.324352389778,0
87.8888494753814,16.3132093594729,0
83.1410293321402,12.9082100608876,0
80.774892008388,10.852981888234,0
78.558685893123,14.8401563261161,0
91.2691611725188,13.774083367395,0
87.4925346167358,15.9085327737913,0
82.2800241095346,12.3554913625008,0
78.7679293650372,9.7371742724778,0
79.8891435667596,12.347451974445,0
89.3035142953075,13.2685529737866,0
85.0792699483521,13.8566310392123,0
75.6729000203478,14.7349891008343,0
78.3329078746003,11.6156596825097,0
80.5403936071882,14.01566919872,0
88.7799060748113,11.310160466098,0
83.1890353288504,13.101168496796,0
76.4012859426474,11.5154490680641,0
82.258913783738,9.91328770042787,0
81.7314229084827,13.6662665367056,0
85.9576432766951,14.881677867544,0
83.7273489308434,21.317428077939,0
75.8065955833567,18.8403821073807,0
85.2986220825679,20.1302526505196,0
87.92743624691,24.2541271855512,0
90.3755463269546,15.0712364554486,0
82.2877497471879,19.5104955169779,0
77.3260547939334,16.4031224788157,0
86.3567444508367,28.4298071492096,0
89.9632010996423,34.3417834384818,0
88.0888374082843,26.583311782855,0
78.6586582862948,20.3531899486008,0
78.5176061014536,12.363346926809,0
88.9235897852992,16.5654195497757,0
85.9837066850774,16.2202079664984,0
78.2998351034405,14.2189826278573,0
78.0818091943226,19.7456035684906,0
80.9101173574424,14.1288999745385,0
90.7186943434409,19.1391307092373,0
85.8932190596055,37.2901383125482,0
74.4830572638032,22.2437009440059,0
76.7682505639214,12.1457025503209,0
80.5039969528973,15.4303751624444,0
81.9321599598396,24.7824071066858,0
81.1709245617547,24.5669497935235,0
78.8103013928027,12.7065438154415,0
75.7895499270336,14.7442892678151,0
76.3635193194376,20.2077780384796,0
89.8297602132553,15.6340332773301,0
86.4032002490705,19.8032619234738,0
82.0173219059734,13.1482534000098,0
77.3372566509624,14.4408242063371,0
75.5548386785338,9.40011662777745,0
83.5274283073856,11.607296685073,0
83.5564842140721,15.1843752386919,0
86.440204021449,14.3370743394,0
83.086746953891,18.9573114934815,0
77.9425655124157,21.3908829260428,0
85.2739957650662,11.8909767343417,0
87.0190499812172,15.4906479741103,0
84.6035232872879,13.938945658684,0
196.576095039656,48.4006904510982,0
191.710326994501,26.090879470662,1
179.109241287942,30.2514123978703,1
168.541147783583,27.6602161969475,1
165.813240146518,27.8666713165464,1
151.63337059554,22.6371819359309,1
170.469073420763,28.9308346067538,1
188.388150801583,28.5900113282967,1
175.920163712538,32.8148612478795,1
186.52015352601,27.123167214469,1
173.71964912566,27.4772376721067,1
157.9306507531,22.7982481707193,1
179.056483258399,24.3203751969415,1
164.900185729521,35.3488471017264,1
183.687197509458,25.6466273591569,1
157.026360043026,24.4810515479455,1
155.353740605546,27.9731563490189,1
164.235935653309,26.6706929946672,1
169.402576762068,32.5087317961469,1
167.188801017604,30.8141594428391,1
152.4914942047,23.5655047295092,1
152.913233645311,24.7972537690894,1
173.875235121179,32.1588932805029,1
178.201655149542,33.9985540931741,1
167.430921129117,35.0109431001326,1
154.365690428395,27.0927253552745,1
161.172900771404,24.9343705146465,1
160.139524856404,25.2595236993823,1
166.092056211219,33.0011891039628,1
173.143186265837,25.9114013365703,1
142.311593498219,22.5588971815238,1
167.792296959116,30.3263627493849,1
160.369694952259,36.8868141682036,1
161.604037243306,36.5852083015043,1
180.924663900219,33.7554757428281,1
162.638667140406,33.3196352045316,1
165.15586052251,22.2505746757102,1
189.829296660542,28.850467983913,1
164.681097772826,34.1173577162733,1
182.988159652943,25.4786236757501,1
162.177145578073,27.1208072483734,1
165.218178838804,32.7453087099544,1
177.850661937665,40.836104090013,1
192.684579182539,39.2349478461197,1
193.019259672494,32.0371180380844,1
161.127826141178,34.097435396312,1
155.201065296452,26.2869214530021,1
175.161877021212,31.9806088879656,1
174.406463691075,30.2077514969175,1
169.561164453807,29.4937177915661,1
161.147043418175,21.8571506380649,1
173.619433901213,23.4199214161966,1
187.953779681039,27.4326842422265,1
191.2277885841,28.7433776871252,1
142.601111161012,42.4246858655949,1
107.399179085302,18.9523490958062,0
98.7035071476893,19.7141817616463,0
116.955937040947,21.7026674509783,0
96.8743152828004,24.2235018154537,0
93.2169624575143,23.5670813111604,0
89.4925025342823,22.9966307330316,0
89.2115964407039,21.9843585806018,0
114.294661265287,25.018090664696,0
95.9656385895809,31.1785872872938,0
89.9372491798558,20.3801150577459,0
87.070451747787,21.0582122147614,0
88.0126050294416,19.0739122869808,0
97.2529764242542,13.2451181757004,0
95.3815619706862,16.6472687311905,0
88.5539771254167,14.9216682847887,0
81.7240670195671,12.2631757211833,0
85.9630717598669,15.9744749016314,0
98.9350492210631,15.5773079154729,0
89.4015994555459,21.7112699952327,0
79.5348663018516,17.7565481306756,0
83.7349964782583,19.8046034610495,0
85.5157013159079,18.6867284296017,0
92.2424459837246,20.0601125991917,0
81.4955573277006,12.7956025104654,0
78.1596124493091,15.6333815568529,0
90.0504556837264,21.3741849581746,0
89.4026698986897,18.3375034168885,0
89.3043863331353,16.8641271727493,0
82.2638695732188,18.0364193066506,0
85.6270293298419,10.8819118546157,0
88.5563269514276,14.8403480718672,0
89.7156213718617,25.0192513548513,0
89.7177447622118,13.6990559443892,0
79.0859722187492,11.1219382438713,0
80.7510777390382,13.2298191830121,0
94.2219259925689,13.7244781682403,0
90.1440905589402,16.6189577246246,0
81.2046837976429,16.8161607357476,0
78.7372103896307,16.0071609558586,0
84.7275875821671,19.1144799142758,0
90.5277980129151,19.0427948032521,0
83.1585319127209,21.6177725576261,0
78.4712591902202,30.0688025340051,0
78.0350182631747,23.3293856394837,0
81.6979853332677,17.5544280177913,0
88.1102784425091,17.4587850021125,0
79.0018693926461,17.0345639725373,0
85.3478964544987,24.1486224894729,0
171.795948220659,37.355116951604,0
174.122558753546,35.1356540308567,1
161.956423144998,30.84215669019,1
185.750187355544,31.1488941520853,1
179.816404260301,31.6629791913733,1
164.688104563179,29.8475195531194,1
154.638786272624,28.4670213608803,1
182.231545589508,26.6720762190754,1
172.758253135947,33.4166230887281,1
170.493949312173,29.6849082821397,1
167.345198362464,27.9607496003425,1
169.471343203662,30.8953144939357,1
186.998514404384,37.9693714024613,1
182.925978441986,31.5727161503587,1
176.195251406901,38.3368760244717,1
166.503947023594,24.3576114258144,1
172.064442614272,32.9702260575574,1
181.716021485882,30.4429985060593,1
177.278370696792,33.2634886997109,1
168.373246508731,22.8920504884615,1
158.781388908634,27.829572027981,1
156.361873522703,25.1252497664577,1
178.738421192093,24.9754419207114,1
158.605022202356,29.5161602074726,1
172.813953152937,30.4410281191801,1
169.59369113913,25.2233599633655,1
173.569377318646,28.530699336387,1
174.300238927469,29.5981610258212,1
183.569943446578,35.2013164079855,1
170.233686937456,30.2603032309334,1
165.414855391223,23.2536648748038,1
167.769217152398,24.2622380700269,1
186.308605110639,28.6015695356338,1
180.952386806242,39.5398981156018,1
157.934670930958,36.31219168865,1
174.613316640782,24.6119765474529,1
180.902551343205,27.131400707991,1
193.055437420957,33.0692531277351,1
213.490322220878,45.6882150225913,1
181.135429782761,41.4395053351612,1
116.425905451153,21.9232210408034,1
110.496317086639,19.231494490355,0
119.940134554145,17.4079153842569,0
107.814120752836,18.981556576944,0
98.4249219724415,14.976813363373,0
96.6132266699187,13.0086125694849,0
101.580169965735,17.1368108518783,0
110.399854712797,15.5336824758141,0
104.697422735564,19.3192803045758,0
97.2471735361691,16.5273569766936,0
92.1241073295836,12.0620468290107,0
96.1375259031749,16.149267025163,0
108.549543046846,14.8356656507943,0
101.726832860243,18.8571974398944,0
98.0165136775936,16.5642218478913,0
92.3296424783823,10.9258749766225,0
92.3357855745087,11.7677066954469,0
102.284417238516,13.284714525434,0
103.093180595458,19.6572601766654,0
102.343160648916,15.6825905606585,0
93.2688402811758,9.62377336877469,0
90.9921163050178,10.2432149056513,0
100.808257160894,14.2701651724695,0
101.811687752329,19.0562733677063,0
106.738957643167,16.5665436857896,0
91.6634867047868,12.1707937808207,0
86.2615951619917,10.8365006408689,0
97.2447463378207,13.2021522176191,0
98.6357818435278,19.0026412210825,0
102.223004242731,15.5628339787876,0
91.8686061772333,11.7334347460565,0
87.155390165203,10.4338762187826,0
90.2163338222957,12.4789339152476,0
95.168530946804,16.8461561931278,0
102.489321408581,15.5352980957626,0
90.0707942094778,13.4185061893454,0
84.0882192660197,12.6151929636769,0
91.2091830108367,12.2837857434817,0
94.643163922774,17.1983120717895,0
102.396839035662,14.6327421287779,0
91.2575436914973,14.7049826434905,0
85.6577800972695,12.8897848934266,0
90.5594812920587,13.6239047796399,0
95.5878689115121,17.4089790178282,0
99.6738611275124,15.3146540346195,0
90.2426598510402,13.5260515578397,0
83.6610718339473,11.6448882066453,0
