18.9456618550757,3.04891081055872,0
20.3524090962306,2.42431670211542,0
18.9313906782522,2.53163635797265,0
18.0716897564544,3.28176328922695,0
17.2924821178561,2.17060530393939,0
15.7296609978583,2.65121367544963,0
13.7517036798369,1.69909223777288,0
17.2174492760493,2.81052913792937,0
15.5921900307667,1.77538055932373,0
16.5829773036454,2.7798600842805,0
14.6573080197082,2.25539944496318,0
16.3594346188834,2.45892356656041,0
16.3845086415254,2.14212452814265,0
14.9467057029372,2.13736991260087,0
16.0099608813129,2.70259392122597,0
14.300510764162,1.57022755031327,0
14.9219293384979,2.13012878694138,0
15.2133838003333,2.11436436622995,0
15.5475084705249,2.23893746119769,0
15.897848494065,2.33386220767682,0
14.1538758766309,1.88936374873939,0
16.2126871774989,2.95035607936357,0
15.1485215813456,1.75864364346419,0
16.4826459529153,3.16143256313493,0
12.8776247870102,3.01186893058047,0
11.1354529927947,1.69535765300466,0
14.1947747882486,1.47638398684718,0
14.5934006688817,2.21523463154693,0
14.4841491692129,2.5658959385607,0
16.9003488715435,2.04378294819567,0
15.2514367262712,2.19372980711923,0
14.9921373147623,1.95218866542401,0
15.1902964095245,1.54632234713498,0
14.6769048410702,1.7522532972774,0
15.5067133876422,2.28071317629117,0
14.5614091007954,2.09650378926923,0
15.6822795112852,2.02179105989223,0
15.2307834901973,3.4188532713408,0
15.4209043563234,1.85621532498973,0
14.1964255606375,2.69123600667541,0
15.0621183780804,2.01155157326352,0
15.4580903159608,2.23197864959547,0
14.4432727497366,2.77673117621417,0
13.5190411607391,1.83603172051828,0
14.2996801124084,2.26912604716773,0
14.9965737251246,1.75633540482125,0
13.8596249183992,1.9110862030719,0
14.1703288682403,2.12819047026822,0
13.9844216789914,2.75101278854234,0
13.8179999538898,2.45910989436693,0
14.1413975228412,1.89153185130517,0
16.1688363088965,2.53567636766187,0
13.3571562459505,1.42474763348491,0
13.450735094364,1.97747961499019,0
15.0406028434925,1.66431718034478,0
15.0838395520557,2.1214534094268,0
13.3524464754046,1.73546303855645,0
15.9213037605685,2.17541390700022,0
16.0958676740399,2.71518649141536,0
13.9624335280097,2.20380281419985,0
15.3456647738199,2.63342148267459,0
14.9986605565996,1.69434575546361,0
15.3602481715408,2.37305989003728,0
14.8670773066833,1.6153798603085,0
14.7774750325118,2.18241828841905,0
14.8951112176584,2.07481332310676,0
15.1654836808277,1.94451295285462,0
15.7438784566775,3.5043956413516,0
14.5836224621004,1.74630470874431,0
14.8320106354093,1.76262785526335,0
14.983616342111,1.48230209158248,0
13.6728244577918,1.9240327712828,0
14.0655492559146,1.91622767306312,0
14.8768911645761,3.16065212997897,0
14.3487392565843,2.55044239092686,0
9.08168187102296,0.969291789994334,0
9.68444962747463,1.52598821218109,0
10.3170560711441,2.2172916948945,0
10.7527690696185,2.7435791370461,0
10.0753399950389,2.17909086350686,0
10.1842301200712,1.8279975944734,0
11.9458067155102,1.76093209992354,0
13.9831902471599,2.43320932786688,0
15.0516952628184,2.70819363451736,0
13.7298279139981,2.05268993816257,0
14.384732785632,2.9315606437649,0
13.0213796014587,1.65199776438386,0
13.9451353196081,3.12318116459743,0
14.0008585318009,2.21668879831529,0
14.1684104898289,2.44223510946899,0
17.5198422094907,2.67272649497696,0
15.403444958287,1.91640162440712,0
14.9813555553279,2.45821287795287,0
14.9276938161106,1.60545083511955,0
15.4839052536727,2.31852723077432,0
14.4397975962385,1.74320604905543,0
14.6523486264473,2.33986384596129,0
14.4372385127147,1.96939712376246,0
13.2071633140243,2.12217506404522,0
13.968689862034,1.99600117334509,0
12.4626075846187,2.13749116374314,0
13.406252343292,1.92672476772817,0
13.7622291342636,1.58616299698075,0
14.0376895961665,2.45002984634645,0
13.2307115150344,2.00079516672965,0
14.8952802408219,2.36808689677862,0
15.5121516560361,2.93347186894755,0
13.5641472658843,1.75682287530727,0
13.9246120523448,1.86201644834709,0
12.1569513994113,1.47915902570827,0
13.7290644419572,2.74162529934869,0
13.0780125385558,1.4937689226501,0
15.1703754971271,2.1622739078004,0
13.7002980986392,1.67403860826042,0
13.3494477272719,1.92691583047484,0
13.7123519396118,1.35926167218687,0
13.5068963923659,1.65747190453883,0
12.9831280539447,1.68742588195048,0
12.699155324896,2.21804357545099,0
14.4817112600237,1.58802090296155,0
13.7328989864558,1.45673211455435,0
14.9356218444885,2.18877696165773,0
13.984761486099,2.6266884194642,0
13.2919989127935,1.64559926970408,0
14.4546269140643,1.83983057262049,0
12.296267652863,1.74793283218999,0
13.638518522171,2.04129470927101,0
13.1696744499894,1.63490169830176,0
14.0589989358152,2.74258680312544,0
13.9909545100564,1.52074505866784,0
13.177800165677,2.04632562001737,0
12.3765980048138,1.46403535418518,0
12.9870259300388,2.08733470546793,0
13.5784940575302,2.38382806891346,0
12.699950835989,1.57776468779063,0
14.5861888184119,2.70334278605218,0
13.5939766822829,2.35816079850965,0
12.2230113281505,1.87814523518877,0
13.5446266355469,2.46878265866467,0
12.5855811472572,1.90653436004412,0
12.2508423505158,1.84984026563226,0
13.5414434775011,1.06028764300209,0
14.4942659198024,2.30343707561729,0
12.3326720862422,1.61442145098026,0
14.3645616561378,2.42203001319563,0
12.6248241710248,1.62620464827933,0
15.0948536010049,1.92715960934217,0
13.8351465557805,1.87228125805859,0
13.0670579301148,1.91277916512902,0
15.134533881805,2.76082061051707,0
35.6160158938315,10.0553566171437,1
43.1336691470333,17.3135765152571,1
27.2502426892569,8.56634996066397,1
43.1787791497429,9.18344955362754,1
37.1780459836583,7.31616475038889,1
34.1014857459254,7.10271664510933,1
27.2096845216636,10.547032731254,1
35.918042263986,7.13830336380863,1
34.1973417515472,12.3072252925116,1
44.3514448533601,16.3626168886509,1
30.3789721150575,9.13973935474167,1
35.4139183674199,10.1181915747591,1
31.2155745630935,9.38499528341664,1
30.1513980607248,8.02392326716639,1
26.5532903977901,11.233607246151,1
29.6720113580483,6.62776448509426,1
32.0326390751795,7.2450480179598,1
30.1400231086354,7.31348590494421,1
26.9972073650651,10.9283633261205,1
29.1122078720788,6.06898875782418,1
34.9382901095045,6.57705434374609,1
27.5926771693199,10.6588503673918,1
28.9625170462407,6.7971581052021,1
42.0157020326839,20.5074278829527,1
36.8512487582759,15.6221810536457,1
23.4708061448653,7.18695550722148,1
30.5606982512014,7.11331794654108,1
24.992154133888,5.5503666404939,1
25.4703648294238,6.88767262912024,1
20.7028232297567,6.83646695137763,1
29.9781545841534,8.79872867885941,1
30.1486766341363,9.40762539132123,1
22.38614624777,6.34825849963765,1
23.4843793227187,5.92039338384162,1
31.243148001445,5.41589739276753,1
15.8770233850383,8.1097883927426,1
28.8187551052296,8.21626587967357,1
27.1928126793392,10.5650398974367,1
40.8625886995716,13.1373160498855,1
47.3102004111412,10.0045160468657,1
29.5603952615893,10.7559245800164,1
32.962185530216,6.85981354213392,1
33.5101856819712,7.79717268282197,1
26.0914819770227,8.26363122330378,1
30.4484078925036,7.16602306536304,1
20.7111318578381,7.3796827938269,1
32.5857854635854,8.92471976674035,1
27.6502344510872,8.78910817826805,1
34.2479100812479,9.23253241315127,1
24.5712481545673,5.14789941449827,1
33.381187931193,8.57739096914925,1
30.6461406097292,9.05502101640763,1
30.6494268626121,8.7280028569649,1
30.0273328082223,7.54857201246597,1
31.4876979806059,11.9552271138518,1
21.6761737659268,8.61419665260371,1
20.5589435134636,5.65331698752425,1
27.8980144135411,5.92578864553582,1
21.3245709165514,8.55544964742117,1
34.2615573447456,10.737575326678,1
30.6717714957835,9.05704743673012,1
35.898719005178,9.2400766509394,1
23.1138116810419,7.45286841110332,1
25.058038085016,8.94570961652928,1
32.3565964345327,9.14631268519365,1
22.7241262280512,5.61156329542774,1
25.4323060232566,8.01068739046474,1
32.1593061963062,9.36351745533391,1
31.4101275798165,8.53280585369192,1
34.3572134513576,8.12175506467436,1
39.4672999080452,10.4289350828277,1
13.0926673084267,2.10734404923622,0
15.1084757757228,2.50231847305267,0
14.2151348436522,1.4156715715736,0
15.0667439452617,2.80915784432237,0
13.5072053445203,2.04983081374997,0
13.6578962289895,2.79263626151889,0
12.0796763521199,1.58349698559642,0
13.7907358386388,2.37188493220963,0
13.6047219737782,2.70686757927526,0
15.4535590439295,1.81160547839379,0
13.9480891446256,2.02944189584625,0
13.7087041610326,2.20970626043393,0
13.0737368654522,1.35221644748291,0
12.8328991244455,2.16482915039902,0
13.791754711319,1.72616996990369,0
14.065615036687,1.21084361678459,0
13.608542078311,1.38101663755948,0
13.4619509753488,2.7017237800906,0
12.6700033619629,1.75293898027596,0
12.4930291343801,2.57013500324881,0
13.4124947734992,2.01833472508065,0
14.1945942216196,1.86499667595513,0
12.1460765826961,2.32819545844172,0
12.3150404947035,2.16386480371232,0
11.5078857252908,2.24032132234579,0
9.05365442834148,1.5854191744338,0
12.1504232015601,1.75237289628748,0
12.1122988190494,1.40378988580621,0
12.8019328938532,2.34599449638512,0
14.0274894349719,1.84864727264422,0
14.1457700455559,2.25326502645066,0
13.3591575309375,3.23066137364916,0
13.1119017192296,1.65397190293352,0
13.7590895655617,2.89325538160904,0
12.7607242729922,1.08851388326364,0
13.6209979019784,2.00619142694032,0
12.033336350301,1.35833793552421,0
12.4921276430021,2.96831435056613,0
13.6131452911442,2.29522445683847,0
13.543563159373,1.92084831984598,0
13.3888850394029,2.48934988063715,0
12.3364850945358,1.96925510040978,0
12.7007610444027,1.88716484691624,0
12.4339619948105,1.32425610719607,0
11.8111016328642,1.7976707847908,0
12.3140825679788,1.73692147432101,0
12.4212056656217,1.45185082566905,0
12.3155289758006,1.50995599870298,0
12.2361925720119,1.75348961462426,0
13.9724515250948,2.50378353974239,0
12.4616842664471,1.7186528078778,0
12.8952750562574,2.83502372318968,0
12.6198618864186,3.54085952067626,0
12.7567569383451,1.84561430696287,0
13.4409531592419,4.45889159996447,0
12.5744495067737,2.37089422226213,0
12.6556822699972,2.24171541185028,0
10.7911876630009,1.89587649973797,0
11.2940950786432,1.79972817095246,0
12.2613952263373,2.28901329994584,0
11.0205370091751,1.66980288094098,0
12.5998777941897,2.93225795519114,0
13.3817873134682,2.23066619275676,0
11.9750919262433,1.60881298849941,0
11.9371287122423,1.53292624055371,0
10.0472089120599,2.04467053870858,0
11.743587930983,3.01754180448766,0
12.1227169340108,1.68588866831333,0
11.9203028727793,1.80765147127246,0
11.0658027134036,1.71738978269443,0
12.4853008144354,1.67933532757475,0
12.9362894409836,1.63219190578728,0
14.2133902717433,2.35362836347284,0
13.2199923650996,2.46420935634316,0
11.5257266693069,2.28873620876062,0
13.1507353009002,2.76974323119351,0
12.3702939281829,1.41466785853695,0
13.2902954347065,2.80234908308252,0
14.9375247857588,1.94562106153529,0
12.9846519114143,1.76541338242728,0
11.8317409125996,2.04782204038108,0
12.2417893300533,1.92535133406459,0
12.1899172574508,2.0593588954341,0
12.2191890356909,1.78475666717926,0
12.9625111832737,2.88789196850381,0
14.3873055904741,2.70724464443601,0
12.1887311447259,1.57295424154908,0
13.6527791041742,1.8451905032725,0
12.6234924735388,1.76977630117408,0
11.9824981793619,1.85398432723069,0
13.0321556957772,1.59189435710445,0
13.8312417296701,1.89607590254123,0
14.4253136008255,2.27513140061863,0
15.6866772286982,1.75526482485117,0
14.2438063680613,2.26976196458702,0
12.6871136931825,1.52320200114687,0
15.5287580059528,3.16439328774165,0
12.5289981967797,1.58206007201384,0
12.629103926091,1.27492661732016,0
14.4386859813743,1.49477821618883,0
15.0014061619031,1.96087620044749,0
13.0928413704381,2.47150078689174,0
13.8139964283798,2.13982862089057,0
14.6279853513663,2.14462667682613,0
10.6914745376427,1.7786485153852,0
10.114933971306,1.99119929519359,0
9.6204940013462,1.91333657049524,0
11.4807263854304,1.90962475378649,0
11.8545762951245,2.48740708643669,0
10.7075954837149,1.41488735616586,0
10.5802687840382,1.27152594034364,0
9.8613388005392,1.79578944138851,0
11.9202683711958,2.50068667110763,0
12.0642389688232,1.81534828980549,0
12.8017242944529,1.3323521858819,0
11.4697300708665,1.70987209037828,0
12.8218104756102,2.97140746416224,0
10.99585971341,2.03406225677012,0
10.9340810809581,2.12105639581228,0
12.5335169980906,2.45352475933013,0
12.1074661139164,1.42901182717783,0
14.2292599911883,2.55779725160845,0
12.209122964874,1.9393492203214,0
9.65347289199657,1.8840717806008,0
10.2780695126531,1.23317050463562,0
11.0286822974959,1.66021952305006,0
10.2869712750305,2.03082397036534,0
10.3969473558159,1.49366314251773,0
11.1671018532853,1.6522105372615,0
11.3312711344575,1.62366539920744,0
10.969449839239,2.48978685164854,0
12.7482951157707,2.2621861001329,0
11.5497024554652,2.00275327761613,0
12.6616732622462,2.67391628665619,0
14.3281790362015,1.95028827192047,0
14.5559802751854,3.2768432446635,0
12.1597700686614,2.46503238683474,0
12.2739735842571,1.83528224344384,0
13.5129496334661,2.14577806231203,0
14.4326512786085,2.20793567698442,0
15.4357919321391,2.10663865772949,0
13.1331282024104,1.54016916717565,0
12.5296208903504,2.42608610714523,0
13.1302523222699,1.26406359736069,0
13.031701094776,2.01575912932389,0
14.0994655337918,2.72445910170245,0
13.5430952056289,2.09225518090672,0
12.687463103724,2.1206837113621,0
12.9059370064371,1.61288881976521,0
14.7895393950929,2.8082105669613,0
10.9685263027135,1.78753268326221,0
9.54113294425358,1.26671753075787,0
12.1703776082818,1.97369246906219,0
12.2292467531938,2.3393723524538,0
14.8090791139555,2.18538613515292,0
11.0296420533061,1.30918614671526,0
11.4782667334781,1.53221024069589,0
12.6914541585293,2.35838009047381,0
13.6173308881337,1.47352597945581,0
11.8103678224541,1.69930470164659,0
15.3672247927187,2.43503823785666,0
13.6311749038391,2.3799470346473,0
12.0520139893494,1.81459090588934,0
9.37951685178391,1.44367885365372,0
11.3730277938954,1.73333000073045,0
12.2330890895646,2.37470598494453,0
13.0679102438502,1.96646976718501,0
10.3098078065328,1.83305101212065,0
12.0384622052989,1.52006163089042,0
11.4369374961154,1.5802790716412,0
13.8086049393456,1.68792131289116,0
13.1737520003514,1.8185730480767,0
12.2096101027917,1.9291308480761,0
11.8334893654409,1.78749113756622,0
13.3363729571105,2.49017903338172,0
12.7135753756831,1.73400841244925,0
12.6630730965394,2.98466198707558,0
13.5597784783591,2.03930609386587,0
14.0791651577549,2.07819276308071,0
11.3987651625619,1.60923388220563,0
11.0806397720582,1.80950845752669,0
11.2970142751613,1.52135666973525,0
10.9904716182989,1.25841523165084,0
11.5249381843781,1.65375092491434,0
11.6789661539527,1.66419282615702,0
12.9485216841297,1.38438080145775,0
14.7389980364873,2.6258783983077,0
14.1901953655856,2.24824454510882,0
11.9462021313885,2.13210889836498,0
12.9511630084282,1.05380113381087,0
15.5594495058195,2.31329996879436,0
12.306957668102,1.85616800438063,0
46.9605692229279,12.5131461064071,1
40.485576412287,11.9276141335853,1
42.0496157960907,8.17826491375086,1
33.6795533657472,10.0875158471483,1
32.7027521634071,9.12054149997229,1
46.8987763779647,10.5860811893372,1
43.0239462434142,12.3573956888246,1
36.5881413809613,10.5179827530679,1
53.0633002698807,21.4963250682201,1
51.3706386197063,26.6277985498903,1
37.0061565389067,13.4168551514513,1
43.3424529283707,18.8427742739147,1
42.2676597715589,12.52186988551,1
41.2941657208335,11.7871989296134,1
47.9097943895192,6.08001675219214,1
32.3939209405174,11.2935652220143,1
24.2775813403392,8.71063667648979,1
40.1862246389853,8.7386064520566,1
55.4748642217435,11.3004733807503,1
40.0237356443612,10.6661405511876,1
27.3501892617683,7.19520753257871,1
34.566023468363,8.9750436566506,1
37.0224192055522,8.40021491550792,1
33.8747288327223,9.57472569508329,1
44.1515007076497,14.4192700382205,1
42.8979028907526,8.25252667611084,1
39.9060147723751,9.45039710333206,1
44.6941501070407,9.56644828017298,1
41.2032955304021,11.4631449298863,1
48.5735553960265,19.9020732206689,1
40.727393580885,12.0193128188989,1
45.8405660971197,13.5544018448372,1
47.7752296523319,17.1570303950514,1
31.0976206386926,11.0426478265907,1
34.8752314940065,10.9557779712633,1
50.1298803927124,7.45022465943855,1
39.918419514333,9.13997764821054,1
40.6855515166525,12.1992896067588,1
49.7688785610178,17.9793814425313,1
49.2727119907255,15.1274319601625,1
62.8055349864349,13.2664761180872,1
42.9192085425629,12.6438413948639,1
45.3715689310663,9.77721322962105,1
43.7437611993391,9.42506567215856,1
45.4560697272608,11.6275415057797,1
43.2339897066327,11.7382840561899,1
32.3193032303155,11.0962801497912,1
45.9647748219428,9.54254681788554,1
39.3839365431222,10.3526055306744,1
39.4190997792313,14.2643887904941,1
50.7676434854993,12.8372114726797,1
52.4518087469616,12.0485341053017,1
37.4928734523302,12.1263672927347,1
28.7898773266599,9.62603923823517,1
39.056263070887,11.5781078857151,1
31.6577477654051,7.90463212947789,1
38.662388043176,10.9280059012442,1
38.3568554890176,7.35122745513729,1
53.7905311571188,8.3131829636522,1
48.5604595599598,8.48557440855221,1
33.5572126149505,10.3580333002534,1
46.9378647176853,13.2102634602339,1
36.0930858735136,8.47110652030335,1
44.9609887391474,11.1937807681124,1
34.1598225808084,12.7220730035565,1
39.869548736016,9.81982265823914,1
51.463466523114,13.2674675023056,1
46.5639734361552,13.5564129624005,1
47.6130309218967,14.4181579194304,1
52.7397035072054,13.4891527009403,1
47.2591362593762,15.9761501166644,1
44.86785487387,9.94179259878446,1
40.6121562319545,13.3810195842248,1
44.1641251181161,13.3263948608894,1
54.98749825164,16.7559212752812,1
66.7142567710662,16.5183020443197,1
51.6732521522547,12.1846202842574,1
53.4061065876953,13.2595086123537,1
45.0334057765748,15.0308046562139,1
18.7210258975927,2.40092818294857,0
17.6996883171746,3.29154401405853,0
14.9987989511389,2.05951448541426,0
18.3375372849759,2.15464443633643,0
17.3254023314978,2.84535434761117,0
19.3131417663599,2.77117739723018,0
14.2826537904098,2.73821451793024,0
19.5389068915917,4.84948579828608,0
20.0930078315434,3.52125807705657,0
18.8905980717924,2.70474086099219,0
16.6613069751157,2.59572917134607,0
15.2545112811094,2.34997964190678,0
15.5833412598097,2.15072626109083,0
15.2268568118236,1.75815320805244,0
16.3247343556758,2.75038940877781,0
15.7697578565239,2.01008845584361,0
15.8252506986087,3.15238753640225,0
15.7684872504886,2.0602774434492,0
14.9912199758267,1.86082850692646,0
18.7074808737515,2.55149651219326,0
17.8125141304866,2.2927599719168,0
17.2214150823689,3.53815454370846,0
15.3723604675961,1.84938752721687,0
16.7905611542217,2.46046530825229,0
16.5703498817145,2.36927651557998,0
18.0845106884767,2.55410962339406,0
17.8225176169021,2.98547226510026,0
15.3739835773292,2.57125348135107,0
15.5712643337498,3.2017828551305,0
15.3777824035166,2.34121457871603,0
17.1909970835022,3.12327770831421,0
16.3020790472719,1.76371259177998,0
16.523200137921,2.09308723754582,0
14.9093474288667,1.96395116274257,0
14.0269117871322,2.28752599412895,0
14.8808370011299,2.7646390132465,0
15.1886758458218,1.67607837381493,0
18.2779626882959,3.14725526989284,0
15.8565355571466,2.87883636318865,0
17.2334819047622,1.96245281982656,0
16.0631329105549,1.73290820472979,0
16.1639426745154,1.82177000118058,0
14.4220753217481,1.86697571322246,0
14.7637080234629,2.01746929770804,0
15.4573822129531,3.0928931061497,0
15.6613388077223,1.99281670719793,0
18.6573870511079,2.63814020966168,0
15.2405395684131,2.85523839217733,0
15.6793930370855,2.45905905932595,0
15.172138351931,2.17814813821983,0
16.1218928163897,2.16467220437792,0
16.6186319958836,2.46003872695183,0
15.261565725256,1.69710399009892,0
17.5524040365452,3.26671642198833,0
16.4812744559316,2.06173408481906,0
15.1734127500431,2.96191695461421,0
15.0168712899237,2.47001583542634,0
16.5626346738266,1.74496551458925,0
16.7738125350017,2.59447441090809,0
14.5248228381848,2.08973235358849,0
15.0964390669369,1.83534644838057,0
15.8989185750381,1.57693781234151,0
16.8304549791533,2.56229022671129,0
14.8030210116854,1.68140513235215,0
15.579145779235,2.14876971420375,0
16.4056429383812,1.99165910103138,0
15.6026634308869,2.46012370105192,0
18.1194853732597,4.17897311981483,0
16.1041855830362,1.76927759494868,0
16.6659891773364,2.93112702319643,0
14.7927122685641,1.63095379468748,0
16.2650688391624,2.38783229525544,0
14.4094498348773,1.928096162873,0
15.8597120526932,1.72555613546237,0
15.2466956658652,1.79314943527629,0
15.7922494249585,2.72955431604042,0
14.4306335450459,2.47689245017331,0
14.4194457894131,1.97378872105844,0
16.5773173155437,2.76870480538778,0
14.8936702067384,2.11523812647351,0
15.1726050910889,2.41743190730796,0
15.2289625987765,2.18903626729489,0
14.5155429291072,1.73621858035846,0
16.0339997913608,2.43078002935825,0
12.7944478388428,2.1925688112981,0
14.8168340962042,2.33856709334204,0
14.9564380249959,1.89339020990733,0
14.9262450779076,1.88529530833386,0
14.3525254739347,2.5203765255053,0
13.8504488420058,1.91288690472087,0
15.5377087898171,2.34882966704922,0
15.509576158058,2.37509490428655,0
14.8121085407595,2.05814198158342,0
15.8704680710344,1.67870141810709,0
16.3835253790005,2.27353332594342,0
15.4764236734209,1.59573528390916,0
14.6456721477139,2.18248800180658,0
16.8402630123557,1.58951636644959,0
16.0147735060563,2.77709659705193,0
15.8771387589943,1.88226721776016,0
16.1177930905553,2.43125547336684,0
15.8910660537534,1.6325071171558,0
15.1152975508931,1.89291842114549,0
15.0599594692679,2.45730104549644,0
15.0291716063795,1.9911275244436,0
18.581657635447,3.58761535008169,0
17.663938915556,2.47970794014843,0
17.7770353931937,2.99347795487905,0
19.3480146685007,3.14944011568581,0
14.7187860161423,2.06939927194115,0
15.8311989078669,2.21353267473507,0
17.9133300183416,1.84988330688147,0
14.5341653183275,2.41192753211776,0
17.2433052284473,1.45407088157998,0
17.711808254361,2.7972683169545,0
17.3226931609405,1.58497674621905,0
15.4249882874001,3.47628873364201,0
16.0074453937211,2.95878107426241,0
16.6356463926603,1.466056187751,0
17.3792509565848,2.32590520648444,0
16.9598679493617,2.26626656907205,0
18.3812546728926,2.86986664401546,0
16.8275828236291,1.8752123643704,0
16.579305774374,1.92703196639171,0
18.5292042959325,1.98977023408034,0
19.5450150967025,2.93616357553411,0
15.3771260470985,2.51244755568765,0
17.6035227295605,1.77694877486111,0
16.8782221169785,2.26725745681953,0
16.06187432903,1.92672242230386,0
17.1546111147103,2.83712542686199,0
17.0593248499795,1.5674605939567,0
16.1644070277661,3.40368973006739,0
17.1612114782187,1.97284157119337,0
17.7876482717215,2.41116461780928,0
15.8132241723048,2.12097757663184,0
17.7189921282023,2.8838091239599,0
17.5550512251946,3.38211779135161,0
16.3879416250619,2.37297593054714,0
16.2002803073446,2.48245836978269,0
15.2476171645246,1.69919313390319,0
15.7587437582477,2.2279012136759,0
14.5587017485021,2.29306114545948,0
11.8751815946718,1.64986729083712,0
11.7674016378871,1.80635365437992,0
12.4651861389331,1.49414814791001,0
13.1092959130569,2.36267361138563,0
13.4275760513779,1.77571250731187,0
14.6150732944158,2.82266335117274,0
13.3233772623904,1.57321150115377,0
14.7455519099732,1.72898774272913,0
14.5569706873245,2.02526340798794,0
12.4491024992288,1.4036769825508,0
13.1987809761828,2.36988876538631,0
13.5175240395171,1.46793210325609,0
14.4022590518044,2.11912072497092,0
13.221227981018,1.72138697538304,0
13.0845424274755,1.64406364815787,0
14.8645297488204,2.0552182493749,0
14.1949275674294,1.79982841750256,0
19.1952553287781,2.81468741376408,0
20.3221831874415,1.79991363996968,0
46.0924078512222,8.94493305067748,1
34.4734940774053,7.5538666566804,1
33.6093115635674,11.6917169153049,1
32.1332721970597,8.3335346529952,1
35.0552945859886,7.95527059906804,1
37.597138574973,12.1108380225316,1
47.5704444132903,15.8095299812985,1
41.1001249430135,12.1470999147772,1
51.0508943179647,15.4225762625796,1
36.408856132474,8.02618378478365,1
36.7786646606634,8.78126537634728,1
35.8694822804954,8.53903367124085,1
35.4069119201451,8.11180864626228,1
39.3338908303599,8.27170327054139,1
45.3595917329878,13.0078025390625,1
48.8750516359393,11.2974114393341,1
34.7108078476451,12.9201934554298,1
42.1343043674887,14.1012369972209,1
55.7999118332494,18.3705812130325,1
43.839894791876,9.66551136880852,1
43.5202955130644,16.5963191723056,1
52.2538631565296,20.7921536651121,1
39.8775762983735,7.56913849329424,1
64.1477703006018,29.9369603059428,1
53.6820231187,19.5298416884985,1
41.8159655039962,13.8777114054958,1
35.5853274450348,9.11880442372077,1
28.5787951887588,8.52057312309808,1
29.9624814311017,5.83608575177901,1
30.228643076091,7.11331072191077,1
33.5934348583204,5.9722986383483,1
29.5066391637667,8.4217223534068,1
38.2189467556368,8.81979440542536,1
37.6184720598707,6.60592265993867,1
39.7774937492923,7.3684276706967,1
42.7775813150433,8.64610659126047,1
52.7602016005562,13.9567211226953,1
49.905210260783,7.48017821214382,1
37.6823403705089,9.04487895752401,1
38.3880028176771,6.63876112920665,1
42.7628323605395,7.89952553244549,1
34.6782185080451,11.146564105419,1
33.3190053758096,9.05818508263024,1
31.5378648475974,8.03661434229994,1
39.0276057159085,10.5681799773358,1
36.2893476798763,8.71324297764937,1
45.4667568225423,9.61162378022271,1
35.938537140826,9.36952292757554,1
48.8103879979246,11.9447832383981,1
33.0171180174338,8.91696298188683,1
45.2099453386288,14.3476293446541,1
48.4242966746069,15.7033516136642,1
39.1035604133459,15.3312968366121,1
60.2698162310098,15.6488382190805,1
36.3272707138028,10.7889240859904,1
45.1303257357506,16.0261670071302,1
45.7853057990986,13.750365417817,1
42.0957065027928,11.5502520826816,1
38.4120917644789,12.4656291521322,1
50.8257662498982,10.2054021865941,1
48.6104189514339,10.3771532359553,1
44.9984372580069,11.1931918128401,1
44.7331601444254,7.71163938604069,1
34.064114394241,11.2979283126531,1
33.3194853767214,8.95987661674808,1
41.2292373915649,15.7698581907024,1
36.8985381691738,10.6846288032069,1
39.9950914411102,14.3421290037602,1
36.6156955866239,14.0904497255267,1
41.9717127234023,11.1173835572645,1
51.1226185288985,14.145098795805,1
38.461956729019,10.777744342082,1
33.9580254563179,15.0315513058725,1
41.9045268297989,11.7458361846418,1
47.889538619955,12.0515845838285,1
39.8267988974449,11.7229770989086,1
56.202957431409,11.1791727878962,1
45.3205750934787,15.9245664316049,1
44.5155369181427,16.9300806097653,1
50.6344537170898,11.330263902011,1
69.044823280438,17.8160116882682,1
27.7707085607351,5.81170115205494,1
19.301898071106,3.60841011174463,0
17.2085211358219,3.1438725138691,0
18.4816191378453,1.72414917666468,0
21.3034122931758,6.48221650180882,0
19.0442062284437,3.88208071250662,0
14.955324396155,2.67804572019556,0
18.6144344018986,3.74649064130938,0
18.7449889691891,2.25868005279816,0
21.2365047492589,4.09554555837438,0
18.2059111427495,1.50238501774476,0
20.9629221928325,3.83258880708867,0
19.7362937782955,2.99828216437781,0
19.826716074428,2.40836440960709,0
19.2214882594232,2.30838232237933,0
18.7440959381735,1.90987909956942,0
20.7382997420519,2.69668858432706,0
19.8364005958738,2.17276868760753,0
19.7334139120868,2.98749018928337,0
18.1045826395621,2.95509349996747,0
20.2065919285943,2.85195510102054,0
21.6063694707158,3.0786560684315,0
18.3148812124599,2.90938633087626,0
19.1873264877929,2.82292085387306,0
17.9079478168023,2.58186157182205,0
18.4570651364289,2.58900810832191,0
18.552794480102,2.56435075564059,0
16.7400538761663,2.13402556343066,0
32.2362152214622,12.5299144899796,0
20.3756161676329,2.41144753424329,0
24.1714641228241,6.43274366310257,0
24.8291368742826,6.21379208591056,0
19.9720610873568,1.55590138808111,0
18.5080662482889,2.28254773673093,0
20.9406583052102,5.62619290337015,0
19.0181355674394,4.05529927958396,0
21.8156217531517,4.8170588792969,0
19.9798916776019,5.04402681054944,0
17.236908230672,2.13280224999832,0
18.4637218831066,2.75277826020483,0
15.306736068989,2.61775778910273,0
19.009322873638,2.64450326309285,0
18.6624955598942,3.0242931919035,0
17.5168533570623,2.1366788425049,0
18.6816362331919,3.15625022543853,0
18.5729415905309,1.64474144721313,0
19.8538607425367,2.96713933326634,0
15.2198093315442,2.08278036271295,0
17.6086963528907,1.51379429984339,0
18.7184019989965,4.10007729672856,0
16.9986664156806,2.96976729815488,0
16.3846392168596,1.81075477836267,0
20.456009755866,5.28957370912896,0
18.9192151645997,4.20936647344138,0
19.5879440447536,5.70123518934382,0
16.8900462354788,1.81293051487268,0
16.0277355825588,1.82827005175432,0
17.3522471308713,2.76374291719448,0
15.6728633261703,2.04479615324659,0
19.0724032315847,3.75587908416073,0
17.2164089149345,2.31772040048121,0
17.5415100825823,1.89549051221888,0
19.0110237946515,2.1665021700759,0
17.6425803727037,1.45970966446598,0
18.9410479714525,2.18330986096458,0
18.2972340887992,2.29394773457058,0
17.4643298975563,2.22320723897878,0
16.836344715909,2.27379123263438,0
16.9417754270136,1.84469029555888,0
17.4865898545239,2.13324612300268,0
18.082707236347,2.05497392420801,0
17.53103087534,3.13937033215281,0
15.4844645895922,1.84577449988707,0
18.4015376607635,1.64895111785695,0
15.561611493335,1.7172032696063,0
18.0649066054132,2.03689135098838,0
16.1577118726955,2.13684563617928,0
18.8587013424704,2.30293335636555,0
15.9820914528723,2.54233607232577,0
17.3115400755261,1.94857852957123,0
17.3640296603024,3.28060986496166,0
18.0287965565623,1.95878158892142,0
19.3402373001918,3.82072335936819,0
18.6676446372632,2.67462254891304,0
17.3045723204136,1.96172804796889,0
19.9551772254837,3.97105452362115,0
16.4942743629047,3.00015777256975,0
17.2502041029812,1.79341524708612,0
18.1589546807376,1.72665192218959,0
20.2281774374162,3.4594154844594,0
17.6134609507355,2.78829038683737,0
16.1394682097819,2.42390662938182,0
19.6877039287465,2.8289478843226,0
16.4196607949297,1.85717800147059,0
15.8817965380878,1.78813441667119,0
16.30249291926,1.6860852405211,0
16.5536757467819,2.70989409288913,0
16.3089001142286,1.67859881010027,0
18.8966272835166,2.81724464376093,0
18.7681480555961,2.55897020138454,0
18.4232158949225,3.34650664262653,0
22.2178049146055,3.56756164517534,0
18.3493944826524,2.30898506350017,0
17.9396112521904,2.48770866889412,0
16.0274278559622,1.93176167188165,0
18.0827473256823,1.85610815318852,0
19.1896959588308,1.98421940960075,0
17.637365268881,2.73978457644365,0
17.0816866132083,2.67391127135297,0
16.2766356744821,2.0195864770176,0
18.0755304251989,3.26524596997008,0
16.7695973469992,2.73952299689754,0
16.042273224948,1.42824136441051,0
16.0271534094155,2.6981053344545,0
17.5178244133372,3.2063590476456,0
18.7231391870871,3.39186083037362,0
15.8950979595846,1.38817794180699,0
17.482860482686,2.1248397609128,0
14.2046917238419,1.77757862915517,0
16.5930624802457,1.54488137467253,0
15.7775294979133,2.1722688694809,0
18.5053797396779,2.98502810354692,0
17.1073006305999,2.09866162110989,0
17.0650523899543,1.94052234887679,0
17.7802643972615,3.33358898439382,0
17.098350779676,1.87765935050394,0
17.095216222141,2.70347550853445,0
17.523448203994,2.11519490313132,0
14.7349301752812,1.904755734917,0
15.3788077762562,1.67231472443891,0
19.9375872394136,2.99437900211052,0
17.0270463482487,3.52113733324405,0
18.2434475483728,2.46279689892888,0
16.7331182167143,2.16555405593228,0
16.2778343574889,2.38313703823621,0
18.371521530033,2.39571874763875,0
16.8280265061786,1.98848492168602,0
17.7986035984794,3.07508995239864,0
18.6589175217392,2.69487014315844,0
17.1903675477219,1.89015986024381,0
18.5090048986447,3.6927743123338,0
15.8866473397013,2.14972496718621,0
16.8172562029407,2.03954652063966,0
16.5840667792383,1.60499478126036,0
15.8467310041595,2.86007818497174,0
15.8768140853617,1.79357168392055,0
16.9122984463488,3.02951830303549,0
20.4513705270255,3.6154032747576,0
15.7435177246707,2.05195217442811,0
15.4803671447449,2.95597456902561,0
16.5720304188025,2.2059937133797,0
18.5128353925874,2.96516623758355,0
15.3846424880924,1.95449981966963,0
16.3455379061248,2.15555442383461,0
18.0312534995447,3.63044248028308,0
15.613402718348,1.7071800066929,0
15.7815553864307,1.91317643430646,0
16.5197339572743,2.28979349797194,0
17.6512932532436,3.33851706040734,0
16.488374394061,2.72143745732582,0
17.9816079997959,4.31444599665874,0
18.0543866089512,3.16183445979426,0
16.2172253870313,2.28558137319447,0
16.1120718292461,1.82084268670323,0
16.6167917055813,2.25411530557696,0
17.4886780687332,3.84850283280344,0
18.1320048833081,2.00684693507674,0
18.8891504942145,3.47805979596565,0
16.4030993435893,2.0127281072832,0
16.0083525511901,2.37469491310477,0
17.480643586051,2.7453356655543,0
13.3233964711725,2.21664391015026,0
16.5134088916031,2.72929170385482,0
14.2606203012364,2.37420942415802,0
17.2851634518586,3.14169526650484,0
15.3089298423648,2.25514884208887,0
16.1811692237111,2.46809163929938,0
17.5888566786846,1.85517632347648,0
16.803378719768,2.20139860010352,0
15.176661631213,1.88227268472406,0
17.0018090558278,2.7156508120057,0
16.5712537973194,2.1969588294437,0
16.3243535202581,1.69675026705295,0
17.2365264382534,1.94546300566763,0
15.1393338606442,1.84600557188444,0
17.7794423919076,2.752689374067,0
16.3506603278783,2.32466907949654,0
15.9830822829565,2.58361750674525,0
16.3702897598481,2.61928215395087,0
15.8495651875264,1.42966801692297,0
18.101368670868,2.4090465680025,0
16.8172570861486,1.69847495544973,0
16.3176339322842,2.75609661111024,0
16.1614234055173,2.11397748676215,0
17.1199431028319,2.84983449114466,0
18.7010177015364,2.81678435443707,0
15.7047858869706,3.02961521774294,0
15.8030151759827,3.15717478107453,0
15.9279374641864,1.74400434639689,0
16.2053249646315,2.50147645779107,0
16.077235150204,2.07572255510663,0
16.1128177408444,2.90352766571964,0
16.010253816753,2.02132099695614,0
15.4841517281112,2.49131672155595,0
16.843027544041,2.24973135876765,0
16.0984753791141,2.22418766976581,0
18.0390275000617,2.62857114767035,0
16.2199322659185,1.75048966124049,0
16.281638029605,2.34351049639497,0
16.0536804013952,2.10485974304612,0
15.9898732201824,2.06638733664838,0
17.2147304713483,1.73949639293726,0
16.1050943967504,2.6521112857237,0
18.1296176213143,2.50651959079435,0
15.846851630442,2.38913701144205,0
16.5479104472655,2.44952144487744,0
17.5518065163989,1.62968813131898,0
18.5595291816181,3.51569051599643,0
18.9863525821683,2.07921141005366,0
17.5677054948131,2.80248966350679,0
17.3165570649724,1.67904176816826,0
19.0660304626639,3.04709809169601,0
19.0475466406216,2.1649315738456,0
18.9120171988567,3.47976031582489,0
20.1469384509154,3.0608176446871,0
19.2365747483418,2.75024126232781,0
20.5267091672395,3.28816595942269,0
17.6329928271826,1.73812184156172,0
21.3456283529107,3.05986698900288,0
19.7858648958136,2.02087268783368,0
19.6683811691012,2.97058815210568,0
28.8799308887301,8.17436099952636,0
66.0584678219941,29.3331389900195,0
82.7410658855776,36.6791304512185,1
47.8334502476756,12.8598828255341,1
61.6329910258179,19.3935755335689,1
44.2145209857696,9.41797621488077,1
44.6542477788105,15.9319174201477,1
44.9910701077413,16.613287459446,1
40.154704806603,9.74256384829189,1
42.0036045140074,15.9898421672656,1
40.7071101239262,16.5030468355141,1
30.2602005309103,7.44123545809525,1
42.6680334808141,9.43391767877373,1
38.601322541021,9.15160210746195,1
37.4839756628949,10.7245549082332,1
49.0919247312255,14.1498212114796,1
47.8331243313808,18.1670728821031,1
44.2323345795331,6.04427270751695,1
36.3428172837896,10.6948408604137,1
45.750541402701,11.8940816994295,1
35.7497613502853,8.83163445306303,1
49.1730387460707,17.2565435213923,1
51.2461165117673,18.8723776445987,1
48.097139108326,10.6621049456417,1
31.0228669417594,13.3182276459983,1
46.8139621513088,14.1898100692839,1
45.5724565508333,13.9795332067982,1
34.4696652811654,11.5033508212651,1
58.3530638934045,21.2393858802672,1
46.2023768977447,6.15393374559659,1
40.4280918889369,13.3536444195848,1
37.6106407284901,8.66068087219079,1
25.554751607616,8.18411482232325,1
27.8726640400402,6.08401963749352,1
28.9988466851839,7.21585724194444,1
35.9253535376048,8.58605362501904,1
33.684992407832,10.1220688158389,1
41.7758578155079,7.51747279031777,1
34.8328977781822,9.48818855991298,1
39.0545808336296,8.20814159894781,1
37.6327667635162,10.1308287595825,1
29.1997594206884,11.0715068927804,1
38.3853360293571,9.77135123593159,1
41.2212790337859,12.2055505531487,1
45.9522894231361,19.8100442219738,1
61.0872615374823,18.9356504364385,1
40.6069687496162,16.3329881071625,1
48.9709081324531,12.1714859852177,1
65.7543006172185,18.5170630809161,1
57.0662215108155,15.6464772110389,1
38.7094558367554,11.2600778901987,1
51.1152412825368,13.1798683412174,1
48.9277921909886,14.7448201028944,1
66.5656933955037,14.5123595621034,1
56.4613603261989,18.2250409789011,1
45.2387943338003,11.3887439579159,1
44.5951665470209,11.6149680954318,1
73.8986329424145,15.132588536603,1
49.8794970195557,20.8894197746339,1
45.8264978982994,14.7639555080376,1
52.5480859264289,14.3424248621618,1
50.5679456582046,16.4571147194147,1
41.5279289333176,15.3058581664051,1
45.838595509114,12.3373372196864,1
54.0807727759779,12.6381646153485,1
42.717529033747,9.72729731143758,1
56.1237012936136,14.7939721266057,1
45.5990544348154,9.81686272313801,1
28.0412235361235,8.59264206186188,1
56.2989287031271,9.7480296574194,1
36.0493473046533,10.5740428207754,1
41.6462062751347,11.5407818119083,1
54.8289774578822,10.2528212617607,1
52.5805606238489,11.0025399363046,1
42.9121224753857,9.85109293932217,1
36.2643600166062,14.8248077902732,1
51.5361848581867,15.0151666565836,1
29.3270766829791,9.10985262914419,1
41.271845435803,9.66142049378731,1
32.3891634492624,16.9768597101491,1
38.3072898227345,11.1521980883432,1
41.8282127645166,13.860434741344,1
28.3838831372198,12.2099477693491,1
51.3049435762015,23.4646979893494,1
21.4123506750161,2.64700763883553,0
20.5423014636376,3.59576430797339,0
18.7170846347681,3.49404459301274,0
20.3257551010034,2.5679448723766,0
18.1477282230379,3.01033522232048,0
19.2782491677256,3.4652063224048,0
16.9557696543901,2.86939687677276,0
17.4659382048881,2.39478763718709,0
19.0852789646348,1.65085562596015,0
22.8438897149536,3.63508209627219,0
20.614049510302,3.21414323208015,0
18.9854270665353,2.38836059761397,0
16.7489404240376,2.85062573814693,0
17.7087061175979,2.61668676922195,0
16.8972170034212,2.02212298092777,0
19.7772613007097,3.0829379110085,0
15.0365328731119,2.09739142563611,0
17.6160024162991,3.38674969477336,0
19.9654462152764,2.6863766109377,0
19.7139319492648,2.26589444883803,0
24.408414140271,2.92564587677249,0
18.6834637402821,2.2053124522502,0
18.4279708954393,1.76510716563429,0
18.9384666975763,2.6239988377512,0
19.5525293359202,2.75055669797947,0
16.1888890544427,1.3678112240647,0
17.6022159658741,2.208981228843,0
20.2325455771294,2.28762639474542,0
18.1197874089656,3.14999639344035,0
18.3255672345869,3.20428861281567,0
18.5302589360911,2.93755227678061,0
20.4405784157183,2.34097407315284,0
19.6675254766471,4.9705778766186,0
17.3163792774077,2.07164722046826,0
16.2552307120377,2.77205132752417,0
18.6641797932347,2.91630984864517,0
21.6612106281606,3.59083222819667,0
18.6821732707243,1.99755378886119,0
17.7076723763952,2.67129109698692,0
18.4500544102705,1.8616183972254,0
20.2274659811703,3.22529351867938,0
20.0244591808379,3.29295139077662,0
19.8363784168892,2.68708075031509,0
17.5394788154724,2.3843234378615,0
20.1576199172455,4.97072388819242,0
17.6001966684695,1.99867909915943,0
18.28424873602,3.14146031292309,0
18.6130360988025,2.06141044447464,0
17.4582657051746,1.73112841278979,0
18.4250713649972,2.1440155012909,0
18.673472963729,2.67147951026101,0
18.1151649690344,2.27086154531979,0
16.7780435940041,2.13291862039706,0
17.3038289049661,1.6349120787652,0
18.1207563838082,2.50369814664327,0
17.6194183888132,2.25091464461616,0
19.9419265389538,2.61762839810901,0
17.0415010927846,1.79287084560984,0
17.4852321974624,3.46583822528851,0
18.3350969290945,2.32144169508004,0
17.3231334740291,2.7111396919773,0
15.8553894779239,2.71000817967884,0
