17.304349179811,1.91036297851406,0
17.4688898694913,1.95782813253552,0
19.7170723184167,1.73151001393677,0
20.9965624757296,4.43871620659644,0
17.9955816313982,2.11034105645265,0
18.5648906337848,2.29887566336919,0
16.7351979388809,1.95833144704123,0
17.8264781018381,2.28591724309246,0
17.1205384616895,2.37164148176646,0
16.9481703117895,1.55097559409233,0
16.9835218304028,2.12968928138411,0
16.3648728372291,1.79210724644827,0
18.5734807927558,3.03585643089821,0
16.4675576648321,1.77466862207585,0
25.0762209227118,3.23239990567051,0
24.1864193398746,3.66727157288681,0
19.6946861803771,1.73403623546463,0
21.4798854016713,2.73925590397966,0
22.0248013321376,1.67165378549324,0
134.331784310434,24.6098755746717,1
129.949757380126,16.7819364001326,1
171.14682848448,29.7139528303096,1
165.72346923809,30.4715473413143,1
165.970967367408,24.0802156268544,1
121.402581820724,22.5325784571054,1
191.694605305946,29.9306385998345,1
147.585449027999,28.6479169141888,1
156.022504747685,35.6559207740434,1
232.705324652951,30.0433982289573,1
178.002084474289,34.4656036183089,1
168.463792652371,30.5105611133078,1
159.986990167766,37.8611603296194,1
180.075468196963,26.4259113799374,1
165.931454377526,35.0001836315285,1
165.648773799904,30.8709704433857,1
181.39908438005,30.3692901276219,1
148.527149155274,27.4065521562137,1
161.578669591382,31.8460743856199,1
190.956518307232,35.9383879385834,1
143.467571185027,23.4442704676861,1
174.056190722552,37.7133010046407,1
141.612204453657,16.8797065461639,1
164.485005227177,22.0876308218533,1
137.400864809111,17.0331672661766,1
127.832753037352,22.2738107980194,1
155.31059703815,20.8862115841382,1
107.571348490506,22.5430831925817,1
140.507370256985,15.5575632167638,1
96.3053582142051,14.1099744647202,1
137.064462828947,30.3437970529126,1
105.938725871752,18.9060860564034,1
96.3694633945454,17.3726838480084,1
134.919293408394,16.9380387337094,1
134.303771363145,17.895944431632,1
130.639141549367,17.1955552654738,1
127.222275724065,16.4859548705685,1
155.481347524352,24.0981180406122,1
171.728945867546,20.8087124362196,1
112.082875114137,26.1970762447023,1
124.337404360644,17.5703874227081,1
121.72252366454,34.8301235415729,1
164.473546905283,47.6628418802564,1
141.905588006368,20.1200111532616,1
166.101283432653,28.1245401876349,1
128.274438006336,20.6195461794794,1
136.65511663498,30.7929743967733,1
156.385308442605,18.1779456046352,1
160.514928924304,23.0710549786669,1
97.1920739602058,26.4233045920881,1
127.189580623992,26.0973431883481,1
149.086382214491,25.684285328527,1
140.818816950123,43.4775509532662,1
170.653290033993,53.6379633124962,1
152.973775498251,27.4768859297461,1
124.047212808856,40.7529461595437,1
155.631335901028,36.7957911297028,1
127.804080514172,28.577414168997,1
137.765196543366,25.71353651743,1
138.387740285094,24.0340549186015,1
176.973904802982,25.844659930086,1
154.332053504775,26.6695348803368,1
108.873623874149,22.4823726433483,1
134.69077990239,49.2409818166684,1
26.4415029652644,2.30399031474594,0
33.5387038316724,6.06656376684535,0
31.9876092253124,2.5651021213337,0
31.5777151213177,3.91652513532518,0
31.1658973765142,3.86683602452119,0
33.9878538792072,5.36216637401479,0
33.1040722221249,5.24839985028803,0
31.4213930692955,3.72125409414406,0
32.3419805598449,4.35505260247443,0
25.8034541296965,2.52413546921454,0
25.0134834278656,3.20951411648409,0
22.9654526334169,1.72362745937284,0
24.3382728782633,3.2091886942183,0
22.3328072449344,1.73392051528375,0
25.0057099550468,3.9777973250594,0
24.9398147071016,4.3153261760633,0
22.0201925996933,2.40099243423266,0
25.0504061724623,2.17810537589955,0
24.1666654649276,3.00591588436639,0
25.0127257761169,3.94475319866223,0
24.5565206306074,3.09697532233087,0
26.6598626745948,5.16051160911518,0
23.6895362033688,2.29801030776841,0
26.8337914176519,4.12228285308675,0
23.4267430136986,2.9062586332854,0
25.984822804734,4.63052814417774,0
24.1160383251375,3.19373417625365,0
26.5640173857644,4.76957952466932,0
25.4867684054054,3.07334457401433,0
24.4664582531529,3.21877799248112,0
23.5905767730585,2.13141825044372,0
25.400569575695,3.34688350803926,0
25.3955466182569,3.55362740270173,0
23.8074311774354,3.09807863791025,0
25.1589351578017,3.78957641124152,0
25.1277852623074,1.9057419655105,0
25.6756231617808,3.18640411847423,0
22.9686156870424,2.03420430591412,0
23.4460109552467,3.71031406598293,0
23.5688082650955,2.88647766583526,0
23.8558423990475,2.95247306003968,0
22.8691244803982,2.62840040231781,0
24.9719061228996,3.01080088662527,0
24.1494366186146,2.85807840259424,0
21.632404775443,2.48489636430167,0
26.5099898811579,5.54351209980139,0
22.467171250935,2.15139371646654,0
25.2885975360387,5.40281794818148,0
22.8820307999538,2.36078236247761,0
23.3197444994126,2.74931208216228,0
24.3360622071299,2.74905873879346,0
23.9023702677329,3.12244242473884,0
23.2986358083633,2.6351443028211,0
23.7494045547106,3.51204152539356,0
24.158721883234,2.95939496135876,0
23.3409500724789,2.43227098426667,0
24.433887882022,3.7416290665177,0
23.1671773888204,2.37532905280515,0
24.5456501623948,3.84912891895264,0
23.2298845427875,2.28257570915198,0
22.8511284014982,2.59140844055821,0
19.743627387368,2.22738409275283,0
21.4278152121424,2.96289249720612,0
20.0083841016752,3.10163897608469,0
20.6102127471687,2.15329879035626,0
18.6104227199441,2.25461698297529,0
19.0930515947257,2.50605826314606,0
20.6040612855113,2.59460792800609,0
18.6886859029632,2.50699081411068,0
19.9022611949017,2.93528363746385,0
18.1851755916681,2.13830447458421,0
18.1378340710778,2.8062912785343,0
19.1996129580088,1.66648251131507,0
20.465881045317,3.03554509335309,0
17.0425310785444,2.09636471390089,0
18.5758999685942,2.66580069424195,0
19.8566870850303,3.87874280086121,0
17.9277702631697,2.35614484091246,0
19.112125319651,3.66956547727917,0
19.5670498744795,2.22894702854907,0
18.3716075346698,2.50703712359743,0
18.3442009506272,2.33743653985975,0
18.8403114154882,2.50828177336287,0
18.7212457557582,2.76006658677593,0
18.2174248059616,2.28503281766458,0
19.0217776541971,2.73556055086978,0
18.3301374056788,1.9536689097724,0
21.2315207238204,2.94653374331719,0
18.550440226776,1.60292043933234,0
19.9150206058028,2.80910915695168,0
17.8573019138136,1.94495557137264,0
16.375603031505,2.06793749187632,0
18.2974634040237,2.36393286687079,0
17.7374026880028,2.19489392284413,0
17.0490950274285,2.05830043167834,0
17.7864045040516,2.20444691268077,0
19.3394714662984,2.43213862133488,0
17.1490505357243,2.49590222230717,0
19.1091893095781,3.30752069787354,0
19.0640955085101,3.04457053373062,0
19.6060812200535,3.37659784250107,0
18.7394394135966,2.37932547555511,0
18.423718690606,2.65524112696202,0
20.9806926550044,3.85139241563845,0
19.0902653232698,1.48340729610273,0
18.1750345290038,3.26738817676904,0
17.7985668388661,2.11229031693783,0
20.3794635563019,2.55018941068558,0
19.6435082685243,2.10414212432246,0
19.0922459906772,2.37890927918086,0
16.9454490681785,2.22388021383824,0
19.7294697072364,2.81320353411408,0
19.2979259021696,3.2554478386556,0
16.9761871006427,2.1132368562964,0
18.8280423818934,2.55639662277057,0
18.8548172855287,1.76163495421851,0
18.334972117286,2.77882066174625,0
18.2473904432722,1.817682806065,0
17.8316642209609,2.73716566310139,0
18.237473915285,2.83806715303885,0
18.6861968731287,3.46017098767361,0
18.2473949020877,3.68187478065865,0
17.1197121630543,1.99163807292067,0
16.4825414821412,2.93595677007019,0
18.0593745656033,2.01740508116782,0
18.165297130132,2.89808076607691,0
16.9156170494853,1.62175576214575,0
18.657439821305,3.76029334103688,0
19.3972313710018,3.62328797847681,0
18.5505009786522,2.51307549683744,0
19.3192278544947,2.30146545171388,0
17.2450193714045,2.42287217372413,0
18.8228984567174,2.86819665957996,0
17.1697815315017,1.84544030638764,0
19.0627149786759,3.65087355361917,0
17.4969033132677,2.08608602084064,0
19.627720405041,3.71740952595046,0
18.1011194609549,2.63351781239596,0
24.9616576260681,2.71457879651307,0
26.3219522875003,3.15043807238216,0
76.084269241224,39.0708182005491,0
151.938856866809,43.2822275993447,1
161.540159376951,30.935847241229,1
175.066141376557,24.4468174076296,1
194.443206724735,20.9750697613641,1
160.103709993959,36.5356894818787,1
171.235487559164,31.3901074999535,1
148.847466520657,21.5195869518071,1
187.648077537078,28.7307219882238,1
165.955552243171,32.4001362553421,1
123.384169767355,28.717799779496,1
161.636773126842,14.9447006219542,1
131.475794052377,16.2095376429509,1
116.890864007256,19.7568379989289,1
120.144379497188,21.0973886754543,1
97.2998241082513,15.6972607894423,1
114.551207844304,20.7039869931529,1
118.435815922537,22.8708985322706,1
124.47042863161,17.608713496549,1
147.614712515997,18.6968447107349,1
144.640360146478,31.5826208575839,1
120.349009031773,21.6342465467242,1
107.040513298681,23.8569375265568,1
124.033625022781,28.5306622751447,1
172.918334401759,37.1436282511319,1
141.459535974739,30.9302998038235,1
99.9384291842482,25.7500862657958,1
102.565885951435,23.0537866465819,1
94.3294223400827,20.010808345674,1
117.999643563095,27.5940121069164,1
82.5017284923551,19.5230027215024,1
128.429345297865,24.5004979696913,1
105.733470614086,19.3964305359762,1
114.367787705787,22.6615570565527,1
114.496315587094,15.5901408546799,1
113.476314277204,22.1938450021959,1
112.362136081684,19.8183069781932,1
132.076677536381,16.664557337173,1
148.20662131814,29.8127633625723,1
133.915093989522,21.971337414347,1
126.558096319984,26.1634593845492,1
97.9748173996305,15.6725287161647,1
141.723115964588,34.994795386071,1
168.405645381991,35.6706647529446,1
160.373891573027,29.4817759279274,1
152.854778435264,23.2194481383473,1
106.625433603787,31.5925206107131,1
124.334629783459,23.4318354866955,1
117.793757620935,21.9169756908483,1
126.511330162442,17.2865159037162,1
117.795096784533,19.4748751378495,1
163.807864246709,25.4729011449733,1
152.203207903304,28.1071988046102,1
161.66849715039,26.0054709301933,1
134.001838739376,21.7832486781495,1
114.152333643092,15.5209635188411,1
151.567678202638,33.5728494944549,1
154.885048157783,22.5554776620161,1
193.070860570095,35.7045039346147,1
180.297874862064,30.5565349468796,1
125.108590910691,39.8059834733681,1
146.695905157717,42.5628574352285,1
165.665868547038,51.8580392942717,1
152.875555126386,49.0721938265438,1
138.155587441984,26.2405586098713,1
109.936612027876,27.2117906255268,1
120.701597776872,17.2893133308592,1
117.797203110419,22.2372363686036,1
130.594142003051,24.6844144884099,1
108.803479748689,24.312223817939,1
155.925885672485,51.7497108035551,1
146.937364892765,43.110285898345,1
111.043877214054,14.3602687082278,1
120.719468389455,14.2666466949514,1
118.028347120733,28.4179193075648,1
132.997133591653,39.5777405624757,1
176.559996605333,58.4258728163408,1
130.953815071835,38.892879158099,1
132.535320522622,26.1429817492627,1
180.917411455497,47.2882195209765,1
135.579714788368,34.995803043071,1
165.857638370006,40.3150805691557,1
163.948475609502,41.0105397306378,1
161.189557773178,45.6089128864992,1
126.515729649383,46.8508346964026,1
127.944299704441,31.9363728578095,1
119.003122941486,27.6969838255969,1
129.169914524638,35.1775906114179,1
79.2606800719568,10.3824884892164,0
74.4292306564629,8.6065221592477,0
75.7384909734362,12.786571693574,0
74.2661327280596,6.23808017299239,0
78.0640244608077,13.9118666771635,0
69.1515441228169,6.30675352350676,0
66.4623174240107,6.9399486695188,0
68.3616784227634,6.72600544290912,0
70.0337258580515,7.56041770955007,0
68.4394766295474,7.22133389174689,0
66.417102623603,5.92427750257544,0
63.5725108552461,9.14670387160837,0
65.2490995515564,5.97451390466196,0
68.7701106437302,8.3692166322997,0
63.8070004854955,4.74478635662744,0
67.8305130112651,9.85448237732573,0
63.3134095587823,5.25987452826091,0
44.6258677272633,4.2301860553158,0
25.7472152915187,2.44015207770708,0
25.5200011917655,3.15466833785596,0
25.5102911557386,2.32209971765164,0
27.3947170945455,3.18638589327365,0
28.1351909210492,2.62280648500558,0
30.3767334175005,4.50440242200975,0
31.0313004700466,5.03394263769723,0
26.1168578971125,3.40814372285026,0
29.1216587777608,4.56432412221504,0
28.5999770408798,2.61103854370469,0
28.7565714714564,3.2548058876425,0
27.0465716728461,2.76395980406554,0
30.8790548097146,5.11751346065995,0
30.2443367439284,3.47420338095143,0
31.5941677293864,4.33403244155939,0
32.5320138520845,5.58916927493286,0
29.192590641892,3.34953916233162,0
32.4467952977337,4.28954453981333,0
29.4110055908335,2.83013772431014,0
34.2684324978881,4.53486997374394,0
27.639895051948,3.46530007631904,0
31.162392733432,3.70534856645914,0
28.2511751785878,3.87772334650795,0
29.4214968002551,3.04853079107024,0
25.6858691221725,4.12575141482732,0
24.0872499113973,2.65846681516197,0
25.7765737543209,2.72133494670088,0
28.6549876652184,2.37972238732186,0
28.5803406803779,5.04090130449058,0
26.1393097496675,2.27193582536349,0
25.0992390857931,3.37906714259042,0
23.9953735785256,2.44847922022512,0
30.13524207326,4.60213995204307,0
28.3814704758579,3.31601935348662,0
28.3117201073804,3.20916768250722,0
29.2415665841673,3.77910286141724,0
28.754453537726,2.6168423439028,0
28.3915280541023,3.06131229588639,0
28.5582636803653,3.41897200876286,0
30.501539554567,3.75083063210882,0
30.008252283961,2.71773843079765,0
35.5780635355738,7.91028593294984,0
31.051775489682,2.24540342983067,0
35.9820660028031,4.24594641055394,0
33.8002416242893,2.76095789073223,0
34.152889459986,3.72201201121897,0
35.0717773535361,5.55793408779694,0
39.3049729214786,3.71368489641566,0
37.5549355847648,5.3306835289777,0
33.7459599868923,3.23892281753512,0
35.7721394452146,4.29499970661818,0
36.4622463688407,2.75172939487622,0
38.6850868635641,5.09806629799148,0
36.5635724388017,3.4726813732415,0
38.437391328836,5.01403078912229,0
38.9307614349185,3.9589257313769,0
36.9577909431432,4.46123293461929,0
62.2162114860062,8.65264790181609,0
29.2556822680953,2.64504488492021,0
16.2739334978714,2.97530141643902,0
16.5264028202009,1.9582906236544,0
14.6163557907295,2.04665214484342,0
16.813624226563,2.32014415811816,0
17.8463524272159,2.7687257953188,0
17.4370928296208,1.97263996652572,0
17.9137110182305,2.4903432927434,0
18.7997244569744,2.36951529617761,0
17.8545218211141,2.41960330271678,0
19.080169292529,2.25892494856716,0
16.6792198297891,1.52868579956909,0
16.9960964895757,3.4687819900544,0
15.9382183296507,1.79430345968972,0
17.4831954843047,2.68271265175485,0
17.8972136850624,1.92247724590506,0
18.6744928670438,2.34375738885093,0
16.5573223497948,1.74412787172906,0
18.0443728373079,2.73287348397142,0
16.0778270763947,1.63691874247217,0
16.958584464134,1.99594841997762,0
17.351081070476,2.74322150468326,0
16.3570836936053,1.73964765692175,0
18.1081431231687,2.51606080335352,0
17.7347692045305,2.18235026500816,0
18.1953402230279,3.96139783491304,0
19.1803366301799,3.33620487414947,0
19.8665563643177,3.75455484230741,0
17.7106814396075,1.62175156610325,0
17.3865968650576,2.0390780272133,0
18.1344512328359,2.0508532961596,0
17.579503927158,1.9212779648855,0
18.8340921078711,2.97855048563443,0
18.1570295962901,1.89711277238028,0
17.9763368520081,2.94157964839746,0
17.5241265518108,2.31267802433472,0
20.7852165283499,3.4331794699794,0
16.6936691132211,2.08824133697125,0
22.0669013761578,3.69065976202996,0
17.8958612690891,1.85382757944382,0
17.6251470763827,1.93960543210841,0
19.7864083476055,3.0517401472073,0
19.4837815334066,1.91061304431923,0
20.2474430796371,3.77997358927941,0
18.1231442540893,2.17581029083858,0
19.1530626808973,2.4126259672208,0
18.2872263047171,1.94529987147526,0
20.0537508074023,3.05102260096113,0
18.4017514380643,1.79543051358086,0
20.5909764185698,3.56547365309805,0
19.484653028801,2.64375507193518,0
19.483809104247,2.53955299684392,0
19.2787713312524,2.41990572473651,0
19.6032557429406,3.0110577093178,0
19.3179473817215,3.28425411095398,0
19.7202795951665,2.29221886950253,0
21.0691892573063,2.50624082599152,0
21.4577718324508,1.93211597888848,0
20.8777117981549,2.27910259879393,0
20.6546837226532,1.85285564591053,0
21.9508587451574,4.11391444968445,0
20.8455272310255,2.26634542427897,0
22.5245708605064,2.52878281992423,0
21.1163424558705,3.06860791093598,0
20.4352662791653,2.71272338775829,0
21.6715842432061,3.84531932738373,0
21.107805655908,2.62272384754479,0
22.1539327262632,3.50682944456668,0
19.5606974023924,2.14005931222299,0
23.1096519446176,3.66629613626319,0
18.706398056917,2.06496047167435,0
21.6061352763298,3.42275938424268,0
21.8392515949061,3.39804974587534,0
22.2104876375216,2.13090422328358,0
21.177942440035,3.41672969976476,0
22.8853172070886,4.08046012897761,0
19.7722776229704,2.72108419768518,0
19.9259106509655,2.06184881001375,0
19.8932600895303,1.72261620553894,0
21.1768276170837,2.17631853813311,0
19.3265302817728,2.77852359994871,0
18.500149033366,1.67217408502133,0
20.3527525867605,2.60492134572421,0
19.6717746535903,3.26165536779464,0
19.486053420835,2.34407348482036,0
20.1666764372311,2.2036039503405,0
20.163928481972,3.24924640255745,0
21.7674744597199,4.9802375581181,0
18.9247803568947,2.10825033679429,0
18.9109980766882,2.47772590357326,0
20.0025275557222,1.94505368814455,0
20.7001334001932,2.07869933568381,0
18.293765289237,2.35700587199439,0
18.8166303035418,1.88617695622915,0
20.8788818769351,3.01098703881403,0
17.6357274853133,1.73201630162742,0
19.3952820079298,2.58548553629574,0
17.9534702070962,1.51613665507354,0
21.5660313662779,3.8154270559173,0
19.2223422847922,3.01762139630865,0
19.8095622454591,2.66290632716114,0
19.3055458281792,2.71166739707247,0
21.2595710314278,2.7803581601573,0
19.7121978160441,2.87133055699781,0
19.8293916895881,2.86141383097278,0
20.7938130125561,3.2375229964897,0
20.0926721480072,1.85480942097409,0
18.8366831671993,2.29747722544393,0
19.2878683187161,2.42495025990331,0
18.5830178100478,1.99543652154199,0
19.8076831278894,1.87454503413882,0
20.5752821148541,2.52446219274897,0
18.2009216428734,3.1969035374028,0
20.7829668858327,2.47099698780755,0
21.5671652004438,3.12582799332563,0
19.3814765357342,2.4055243400533,0
22.4279642555207,3.31635557859049,0
18.9260856710059,1.41082916981222,0
21.793890832699,4.01670767695861,0
18.6024069730018,2.17559832342437,0
21.5172069901228,2.36306237377979,0
17.6470077515215,2.77648669763,0
19.1626272703309,2.34388749001507,0
18.8437476397779,2.66185350017055,0
18.809958410434,1.59933455182613,0
18.9659269733575,2.79912888678023,0
18.3759003938685,2.43305369990743,0
20.2227004883511,3.63522729214665,0
17.6606135880125,1.75015457505696,0
20.4473948240245,1.94433347059486,0
18.1908588349727,2.80351304279273,0
18.7496795067626,2.09655211934394,0
19.370057479756,2.8723310105387,0
17.5955445843774,2.49770687333206,0
18.404859525506,2.74628784496843,0
18.2344345513726,1.92109838330232,0
19.3848394266778,2.63606587571809,0
18.7506432649002,2.19480504296422,0
19.3067321867713,2.49236706323616,0
18.0563261690545,1.86754959222749,0
19.8345975492853,3.03511390926784,0
18.9867931667787,2.29325160981442,0
19.8899007812769,3.47526644757594,0
19.366502857601,3.38269902968419,0
17.8069463499044,1.80189324146101,0
19.1560982488144,2.69502753301894,0
18.7821014571794,2.03023761615139,0
19.2493661611062,3.06171729724555,0
17.7978482704823,2.06358949775527,0
19.8424003488492,3.40653937181444,0
18.0168906776462,2.53658937320567,0
18.4109164295502,2.68817069149831,0
20.2941122807611,2.11747342842244,0
18.7993196743876,2.50999557193803,0
20.818934104917,3.37720826509504,0
19.8943609645391,1.82903552783552,0
19.3531780609304,3.16723011088334,0
20.6927911610566,1.59080409905075,0
18.9196374169224,3.35474756203643,0
18.7319453712795,1.84484241450046,0
20.7304157103196,3.18471854248533,0
18.1372185942816,2.39281932144888,0
19.7357108508812,3.27139127888718,0
20.7100668799069,2.71256397728906,0
18.741821534635,2.75143193614727,0
18.5241395572439,2.50629026112771,0
20.2919038191894,2.6095011115666,0
19.9394413026724,3.94168338309177,0
17.7266398594127,2.70120436273053,0
25.3392970552597,4.36433522433124,0
64.6752108949914,5.15819867528001,0
116.367146454803,17.3049697201254,1
147.90728865268,21.0647776553728,1
137.636838527353,26.6641263539452,1
131.884433693136,22.727399574934,1
154.745645143119,14.585973403783,1
155.475840447992,30.9096197986723,1
199.682816755275,38.5968772460773,1
165.824278951024,33.1467241634364,1
157.004043730512,29.3518432427448,1
146.34871114445,18.3874416268884,1
146.101987207811,27.8231348167865,1
134.164441673252,21.1905947225138,1
159.120120791688,17.196000693155,1
174.010499150219,24.5064628512296,1
151.050224866612,16.2927121498722,1
169.762444615324,28.5407660675307,1
152.382933779044,17.892585685378,1
154.448368585609,22.0357605456218,1
162.874463297682,21.5945622699785,1
153.450942727705,34.4917313726886,1
118.08580002577,16.7533590228534,1
123.679766174423,25.6222120854406,1
111.959582362741,17.9854283810613,1
121.083380313213,18.0916440372694,1
124.045756212095,23.6301571883507,1
108.283633121879,26.7169048716623,1
144.377111750396,19.5274438594221,1
113.889580370568,49.6596916099095,1
138.092721795083,20.1159744814665,1
116.365221719143,17.1072394528548,1
101.747244111084,16.2797273658214,1
100.847087993406,14.7201913245474,1
80.8894356885627,16.8674923842375,1
99.8177258224608,14.46123637848,1
110.005454868601,22.9969376495924,1
94.8223625236037,16.3622844415444,1
108.923977989464,20.2729712483506,1
143.634474210593,23.4139381625319,1
122.683403375982,18.8414263623388,1
104.517063736759,14.9862496056591,1
109.474861676937,36.004094949949,1
112.600543861349,32.2025741141669,1
105.447733587429,22.9120285937768,1
116.806974342055,21.5334269828343,1
114.651948596437,26.0294706885173,1
120.295683943632,15.9253511497431,1
135.94685354613,27.2574789196539,1
105.154319077209,22.3173331288671,1
117.965267438891,23.2444298887693,1
125.289286597378,20.8545672258624,1
114.365944270058,24.4047410717721,1
164.037597219418,25.7335561785343,1
118.575411448959,24.7044778108579,1
121.313488459657,13.9141450580126,1
94.1884366324733,18.4753836177238,1
77.4695475736434,17.3246251475487,1
89.6756822781556,17.8087187437335,1
102.095513534664,23.0311476315009,1
119.304120991582,26.7675310628462,1
98.8924093930186,16.9823820947934,1
79.979743484159,22.5917173001941,1
108.664527160827,14.7512792426347,1
89.4972904814992,26.6570073394921,1
133.539722284176,21.8037264965691,1
110.45341794758,19.0043984465106,1
96.963276779196,19.1410085477807,1
107.573580139238,16.5705103054263,1
122.246951501341,20.346107774887,1
116.056900661,34.5155740532911,1
99.0651422583349,23.4505137010887,1
86.3395728410638,18.0742292295082,1
100.883511466905,24.9045342043803,1
106.345663784057,26.040614579033,1
108.745703043954,16.7740310603795,1
100.879278975026,29.0889195468801,1
93.3768818433073,20.1506482676473,1
88.2239188485287,28.4279430131938,1
100.313011356804,22.8882527458651,1
108.919760365423,26.1514688975228,1
105.608927938107,18.6439637311363,1
23.4762173567637,3.08291996593147,0
25.0370987195254,3.14991406870404,0
28.9048130105958,3.87905399873229,0
24.4324943317818,4.13343959363338,0
27.6478045659383,3.61738147929212,0
26.5165204790898,3.05516716497469,0
26.3454932204372,2.83282466132924,0
27.911134927825,3.63060837554456,0
28.9160417964482,2.10267955897072,0
28.6825244910504,4.25099409464151,0
26.7181082337505,2.0275766496518,0
26.7460461842738,5.42004965314179,0
26.8687405584935,2.57517257635692,0
26.6635553821604,2.94683079575753,0
26.6755855864826,4.354659309872,0
24.4429544965016,3.40121548484517,0
26.6525662769027,3.6506555039982,0
25.5184155959129,2.99977892005707,0
25.6636727516692,3.41696344061336,0
23.6002907806652,2.36162255289853,0
22.5853961947832,3.00754340048622,0
21.0017761367901,2.7030956127584,0
21.6419816927042,2.85945992867169,0
19.1296901484589,2.39520787853121,0
20.0986601695869,2.8964142085939,0
19.2640599084827,2.0098179838452,0
23.2207157085504,5.58399202543,0
23.893025845475,6.31141605570094,0
49.4537565428404,25.905091560015,0
58.568086042647,31.0199075649903,0
29.0209261149238,10.9547600755903,0
17.44588233305,1.91680973644807,0
17.4343245121191,1.67468003790076,0
17.4059770037512,2.32946414097759,0
18.3066980554861,2.90810935436326,0
18.0119955136617,1.71598052027258,0
17.5454511515597,2.51741592617782,0
17.4085377506556,2.3189506486928,0
18.1757613180508,2.61768635429596,0
15.9396488841971,2.17159381714695,0
17.2673721593899,2.2422298588667,0
17.5832077309257,2.2322677639138,0
18.5819970998031,3.06431608580764,0
17.4877208235318,1.84197647817946,0
17.8600575684906,2.4433874050803,0
17.5915829175105,1.64963970338057,0
17.6918789966834,2.49915273115651,0
16.5102187321468,1.92106453859038,0
18.1962234605259,2.56138835380547,0
17.4085444705854,2.24676959172396,0
16.6753959470074,1.8409622190716,0
17.7121847102339,2.16064562415197,0
17.4167130936503,2.22994127437367,0
17.8466786141765,2.09183821976397,0
17.8044264344622,1.66469643087721,0
19.4636817831551,3.61069864616528,0
19.2432165099627,1.82301675531261,0
18.8550708524913,2.25488376384173,0
18.4931916620326,3.43238939954554,0
17.0649679592403,2.17916878018928,0
18.3733613108626,3.22938601259452,0
17.4704464513562,1.9363613290365,0
17.5590385565014,2.96196847074219,0
16.3675305826617,2.00980961814659,0
16.8136638033139,1.74429730205734,0
16.8546622266956,1.57181602109072,0
16.6733364084667,2.04983610437357,0
16.641765925937,1.70850004647879,0
18.0925857660734,2.87975564437196,0
17.6855623609444,2.67989425129304,0
18.6405334864004,3.56394491971158,0
18.6156105085732,3.91488850571064,0
15.0715644715157,2.55605371441736,0
16.5336798534315,2.50451970583753,0
15.7037964913788,1.72383047338898,0
16.6446646043282,2.24581113609422,0
16.2406638754276,1.70125435439785,0
17.8561737875344,3.21624242791327,0
17.959026368399,2.35658498210803,0
17.4459379251672,1.95095257431837,0
18.2124458607178,2.16933006214158,0
16.0199553202844,2.07268211089487,0
18.4592834248633,3.07633722926304,0
15.2917756272747,1.74045662946404,0
16.6565366913432,2.66731521356995,0
17.396597656522,2.16530845311742,0
17.7985360642098,2.97668052459758,0
17.087966992222,2.36623039572646,0
15.5037709595805,1.97642312101906,0
16.9908532760871,2.59319081976195,0
16.2918783422762,1.52583350716288,0
17.4313115383725,3.000324038919,0
15.6987168947289,1.49280593567248,0
17.6489080816091,3.1965893671104,0
16.4133100507858,1.66717198871418,0
17.1119931875051,2.69896740695355,0
17.2273371709418,1.77890036295928,0
17.3573649285587,2.35149031950709,0
19.0056121430622,3.87478136782429,0
16.4129531345701,1.62227990071116,0
18.4080828433751,2.22796023465484,0
16.5582011400681,1.93660348830063,0
17.8608156318,2.46322828270833,0
17.0915925249721,2.1137580318878,0
18.3933353113908,3.73495297511714,0
17.4043815829035,2.43434085817359,0
18.4498454054637,2.59289921855694,0
18.0946026842558,2.3553598412686,0
16.3179822049721,2.10003458502308,0
18.7322481504687,2.3616738624279,0
18.8481487174644,2.07540414392447,0
18.7260573397112,3.48367537085809,0
17.066697541685,1.55898400802403,0
18.919149585781,3.3695360790056,0
17.1992379849006,1.87801917770332,0
18.1606981554003,2.58374885380454,0
16.8614799302106,2.03115302437659,0
17.4536388335765,2.55977256186652,0
16.4768074589007,1.8953770827191,0
16.4660450724759,2.36918562621951,0
17.386770046053,3.20390357192887,0
17.1509062409462,1.48028137102392,0
16.197656826335,1.97632016759716,0
15.4187850725613,1.36237699776816,0
17.3127364951766,2.32916032134536,0
16.4610954172763,1.65464443560352,0
17.5891525159936,3.23819805021246,0
16.0825173817296,1.93829440380879,0
16.6445402305926,2.54852773472698,0
16.9490227975177,3.48407542835676,0
16.8891196439224,2.13818330407374,0
17.7450739759221,3.37050050417636,0
16.8211908633444,1.86055405773994,0
17.6933118906324,1.95671032471738,0
16.1701622103332,2.01206734999182,0
17.3888545048183,2.23162213237673,0
16.9426192405456,1.87398111393583,0
17.0464168992721,1.66491826048049,0
16.4252776026642,2.13453087075697,0
15.8310873694561,1.91895222637013,0
16.6988743387553,1.98551651273186,0
15.3460555979278,1.48600830397958,0
14.8124648344526,1.93915032351302,0
15.2506789209595,1.7874215652112,0
15.899110590631,2.48365420583387,0
15.8576422857593,1.97412326782906,0
17.5464594380457,2.62924476876763,0
15.5223333359806,2.37019522184322,0
16.713996008967,2.68247663624128,0
17.4664931989332,3.24350994048587,0
16.2271102218446,2.07327985831813,0
16.6864958934883,2.78618484082714,0
15.6713578501012,1.88863455518568,0
17.2752706925409,2.65098513963366,0
15.6031697541375,1.81539984505266,0
17.4840073778347,2.15288504148492,0
15.8798957330083,1.4697441992426,0
15.3605070246624,2.3409235988135,0
15.4121308568164,1.64682228203,0
15.2636020566424,2.32513576169443,0
16.6526348389496,1.90449253469769,0
16.2805912030029,1.88660833920475,0
16.1433459215382,2.09502688802168,0
16.4892042443023,2.12228455077692,0
18.5913839138184,2.39938745982883,0
17.0791037642796,1.96844148562177,0
14.9653029157439,1.90712160421448,0
15.9939582203292,1.89761035506729,0
16.7037037810116,3.40517950342174,0
17.3054991627077,3.06666049846357,0
17.2834300330921,4.04368696655712,0
15.1869820647346,1.84023248282905,0
16.1795945321747,2.11172166100277,0
16.2748340673282,1.97146759019692,0
16.2241173473603,1.13865847529962,0
17.7362995549438,2.40460533290614,0
17.2937783924733,2.05523055392175,0
16.7558243510261,2.47626933406283,0
16.3590657447798,1.64625558186096,0
18.6494230780681,4.58343057855922,0
17.302714314046,3.4972240940487,0
17.6230156648342,2.83175646989955,0
17.2523098157174,1.86214799831054,0
16.7620012797735,2.50667333232354,0
16.3056829509046,1.5625173723755,0
16.5759512283334,2.89349852841808,0
16.1648142398088,2.47376338547161,0
15.8986633320733,1.20499642764516,0
16.8438271026527,2.16279099562734,0
17.001367568936,1.67369266836404,0
17.7992603260429,3.58287218349154,0
15.2808699556973,1.43815187764462,0
17.7289249390029,2.77399597140045,0
15.2364920547342,1.77449760108454,0
15.8853351431892,2.24623367948317,0
15.1713782264518,1.64300916896343,0
14.7965914802874,2.15965528677691,0
13.9976982588759,1.77099986869452,0
15.6005501279383,1.72224902397802,0
14.3971859790649,1.71193257982794,0
14.8385708297037,2.25216758757792,0
155.101025772207,25.0053094518367,1
146.071310565296,19.864321652524,1
140.158333044373,42.1375635750272,1
162.531555393809,31.6503772372201,1
158.541455396519,21.5693353818883,1
155.684153746582,28.5488373324651,1
131.675268767046,29.4524581045335,1
155.534929810842,36.8370075285674,1
105.380784445248,14.7173693157865,1
138.845993120533,22.4227977365301,1
140.331750668692,19.826079634437,1
101.532428602364,17.4364029436939,1
89.342319216626,13.2531371747954,1
104.804863107675,19.3903139648244,1
150.223110258359,17.203306711402,1
99.5006993795387,17.6491995093047,1
84.4985613294332,17.7525657260895,1
111.960676067124,16.2217797901287,1
110.803714315528,21.4900488001284,1
103.512055069982,17.9442256339352,1
96.7880629267983,9.94982737865821,1
79.9441340689153,11.6205751039038,1
98.9255114529111,17.2602464429977,1
113.371561426519,18.6622622631728,1
101.837096916515,26.3098902868842,1
143.954351617974,28.3622159832893,1
123.581994324367,34.1298017760495,1
104.752065364869,17.7912827164591,1
179.695993655504,28.5311459532079,1
143.580508186137,21.7979127955056,1
126.223750001119,17.9079536295696,1
112.976217985063,18.8942876788526,1
124.06141710585,26.2951789893237,1
143.746672107264,26.552127048776,1
88.1580710352072,15.2091911354314,1
90.4585990928539,14.3935620844939,1
88.9795178163773,19.8718120478881,1
98.2612037752954,15.5400656720367,1
105.355838088859,19.6832434386523,1
95.2624908886425,25.2859671148098,1
101.954247264469,18.684275420447,1
106.247869825928,22.7569129913765,1
132.890790880035,10.3129988703542,1
127.914084899035,19.1304422183393,1
107.522052997038,26.0622165401259,1
165.892494948525,24.336092539332,1
124.582528007225,19.8282386607493,1
118.694821176602,20.7759972773961,1
114.638977828955,23.9081430329061,1
131.805944610431,35.5291604152393,1
99.3262466109827,20.5832104843847,1
133.715052934604,26.1114736388345,1
106.260322938574,19.4627123472104,1
87.5268769585429,18.1433834759921,1
117.505662849549,20.0711375899715,1
159.211694234614,38.7343428157161,1
116.753267625008,22.4277954594585,1
107.956098571507,28.3234580939389,1
119.821638401008,20.3086631171971,1
105.632824636318,15.2592614353031,1
91.8547301854748,18.6311210091646,1
115.263427850449,17.7585338391339,1
96.9201283250669,25.097784692208,1
120.018606535945,14.1155785049347,1
127.952039277625,20.3660256203085,1
102.32655444053,26.3103602938353,1
123.319657260706,31.0027308259784,1
122.944365241339,39.8928355129028,1
103.60035267186,30.9614810863182,1
104.069429347476,25.5618943383158,1
113.050867453121,30.126398007013,1
116.099620604855,26.6715379750515,1
109.827982209994,21.9733662085045,1
109.564687961747,20.4758072811088,1
99.0534842861518,26.5934714716126,1
137.435752465944,29.8546651305343,1
116.669022512168,18.7516511176479,1
93.7942190172069,24.2669535191569,1
95.2892501470085,20.1657307676787,1
89.0554835820564,16.1435565015171,1
81.697742608135,22.2257175002753,1
86.146148282351,14.9482828640184,1
86.1795649178057,16.1348480891493,1
89.5275295119425,15.6910070982408,1
102.819154590567,22.3775912396032,1
110.753935168107,16.3288350147967,1
111.957655379279,27.9107176032665,1
133.747930439734,11.3018309433966,1
130.132488357793,19.0037727937806,1
131.776508223014,22.0933544045957,1
139.340055686133,20.3555493273042,1
147.37050458192,24.9644183684095,1
132.16836832819,15.3719104424895,1
109.194373332365,15.8188652079214,1
101.499246002163,16.9601852122351,1
122.200473720649,13.1573332225093,1
79.0476000265938,14.3612863142501,1
89.8376317926928,21.1326696668423,1
80.3607510230052,17.8608585604142,1
124.011786801535,28.0331584197224,1
79.5051928816382,14.2683643282427,1
87.7526067361062,19.958048082075,1
81.2832416375389,26.1701794316724,1
132.125799200022,30.3294728595604,1
95.9499399839763,12.563020422208,1
75.1682009012754,20.0985968310231,1
9.80933939916386,2.18721287053278,0
10.3463896945813,1.73901294534929,0
12.2895057674307,2.37997014318678,0
10.8607894982508,2.20731312642293,0
10.6822414191501,3.00474855845129,0
10.3686632722446,3.03620848715736,0
10.5512926922266,2.49338699203111,0
11.8615481191934,2.27878188186566,0
8.91730177810135,2.14088383944195,0
9.47755367806965,2.20455266160656,0
11.2084734405444,1.97064307213377,0
9.80002017078321,2.32352631262475,0
11.4768470192494,2.73068415518682,0
11.7938124309376,3.28030982710141,0
10.3729099801788,2.35256631259929,0
9.85444001658757,2.63488539507328,0
11.1593028482465,2.2396724180433,0
10.7825133012858,1.80446807391547,0
8.99318691704753,3.09139281765922,0
10.3939886533895,2.80276887657465,0
9.65085089062516,2.30042668647078,0
11.0141745536016,1.59125818690582,0
10.6929684308881,2.47717791273366,0
10.1548232033646,2.22078854890657,0
10.0911278928639,2.06531183914154,0
10.2182784616418,1.78475052300429,0
10.2779560621819,1.79506856489644,0
11.2913968262193,1.68220006695012,0
10.320786606733,1.80592840433346,0
11.065056477404,2.42288168268621,0
10.5771263179443,1.51381344905532,0
10.9856057749275,2.30009502059559,0
12.4496102001355,2.43791162108565,0
11.3262536517833,2.13599108105402,0
12.0655910439044,2.43856045065054,0
10.0409256892657,2.01484928799587,0
11.7714224762361,1.64567130699556,0
12.7278595015666,2.54362805989698,0
11.1089341223922,2.11003277186994,0
12.1994556436525,3.18980272425787,0
10.8517590561051,2.24427320097918,0
12.4575352551048,2.44444138654299,0
11.8684179932437,2.22698366509376,0
9.96219350299253,2.6805796161665,0
10.8280972004164,2.44717755853218,0
11.3397748420923,1.98708084040361,0
11.3640277964149,2.14745753360414,0
13.3087225286573,3.25740446590819,0
10.7938309257964,1.64600210270719,0
11.1131880151696,2.582711005651,0
13.379702910342,3.23155370749237,0
19.4860330162063,7.0749875259482,0
15.2503761668758,5.26988143101121,0
11.502735331196,2.13451734420821,0
13.1095160093551,4.57865637543704,0
9.37155288497005,2.27600756494211,0
10.9228795561793,2.27536196015956,0
12.2207285926645,2.40590338162268,0
10.7923386431256,2.44880148199292,0
11.7372493786051,2.38456965717949,0
10.2125889296656,1.65013462384272,0
10.8482177026957,2.55730544961588,0
10.7142553485329,2.16570053977984,0
12.1878657907342,2.73514736835277,0
9.27644650244273,2.05028449398912,0
11.3380557458827,3.52405383610861,0
10.9378029500703,1.75349317880493,0
11.1542088268931,1.86719898880544,0
11.5343529716424,2.23534409955189,0
8.94287616979829,1.74695867583491,0
9.94124035646957,2.00805368327811,0
11.4735978298748,2.07646423837301,0
12.004596916227,2.61041062698121,0
11.1964926381358,2.68844914284011,0
10.3136412468488,1.92798080096559,0
9.30084367000886,1.71714371728308,0
11.021796790808,1.96836158328921,0
9.89182842347207,2.45527623340014,0
12.1040257709614,1.48670722232702,0
11.5543482511343,2.52051681674377,0
11.7667596916882,1.67519461204854,0
10.7960833719437,2.21293230915033,0
9.9627570058561,2.22282647187247,0
10.0671987360584,1.93644047778289,0
12.2567177743765,2.13339364243473,0
10.9340325977479,1.66548994339214,0
11.5131237000105,2.83162044760143,0
11.4870044276375,1.87389256053306,0
12.4389668548906,2.34894713544537,0
11.4125853125008,3.26438890495109,0
11.8551965083304,2.72432828835123,0
12.472756353033,2.12439845328991,0
11.4834179673589,2.43275734165158,0
10.3614598457752,3.01028213796246,0
10.8109492876763,1.45716607767425,0
13.4607131934958,2.41557861011355,0
10.231893660164,2.42110888826485,0
11.7462696934355,2.42997099476216,0
11.0058393501616,2.77946843106865,0
11.3489544977902,1.65003744915296,0
11.8978339966986,1.79733154458877,0
11.11983660117,2.71392379878618,0
10.5491964104521,1.83973338205262,0
9.52819264067855,1.70825265447728,0
10.4344390109473,1.95225894208927,0
11.3897435472882,2.89556198192167,0
10.681531085544,1.53830951723571,0
12.3540540086423,2.05906914691972,0
10.151920109104,2.23085178083798,0
10.3027315302892,1.82276506906295,0
11.66223984073,2.14769512685153,0
13.7980433024416,3.67478993806242,0
13.8978955911663,5.09384001333541,0
11.9412080494569,1.96322491488543,0
11.432498689164,2.55387187704081,0
13.4271506461791,2.95886570452942,0
10.4283044555253,1.96014910542646,0
11.6611571606667,2.30902780471408,0
11.5928570958216,2.16130315830647,0
10.4299300002745,1.6138019420431,0
10.0553136985624,1.73155488988121,0
12.2177808490412,2.02644516296883,0
11.2788280784662,2.8982056450819,0
13.1075268384773,1.90831488007409,0
10.3960855297707,2.01174118588209,0
11.6497676741091,2.49907069568726,0
12.6854045865742,2.33831535454197,0
9.9205574839225,2.2320162503021,0
11.5865219573222,1.65562077693269,0
12.1367041039929,2.38389140974765,0
11.4340621152408,1.86451842672082,0
11.1303355801291,2.15522420931708,0
11.1590770453522,1.73006927061495,0
12.9000682604293,1.66204256587505,0
10.7584708539692,1.90300923045842,0
13.2507685078132,3.61394303642724,0
10.9216090365408,1.61145181458679,0
10.9497431617568,2.27951650769012,0
9.95669562145089,2.2251047993391,0
10.3398320595349,1.36955923813341,0
11.3915692491748,1.63139052511947,0
11.6407337100816,1.93872003022973,0
11.0301556264683,2.34754081267956,0
11.2045993636017,2.05597904864476,0
12.0667236469923,2.37551349649034,0
11.7735264639039,2.37816910937055,0
11.3959874193647,2.46223141036951,0
12.2754703634822,2.11742501301459,0
10.8259485137827,1.915812124376,0
10.8048583261048,2.34757146801961,0
11.2110576002653,2.27757817430266,0
12.4129274210236,2.39836751785594,0
10.1014049061938,2.08008336375404,0
10.8655508520039,1.51323797131861,0
10.5489475038484,3.05527528472037,0
9.51750852741735,1.89765181915349,0
11.3396278312038,2.7248972659677,0
9.75720668663146,2.01836871039764,0
12.3692030407896,2.69657153718458,0
10.0538196735515,2.21272438536611,0
7.86656544551766,2.248805422553,0
10.6253025817091,1.65765907135182,0
8.33816567432203,2.51939046345326,0
10.2353861496224,2.25725020027064,0
9.91048461002672,2.18139247722199,0
8.96015292971369,1.55963167818764,0
12.1391337380707,3.87028042328258,0
10.222881827195,2.86629983461242,0
10.9335846977322,2.17940057530891,0
11.1279683984463,2.79799759304664,0
9.19154068841956,1.86658463536111,0
9.39299386758602,2.15955376860439,0
9.10971101520984,1.95333072927433,0
9.79903136342143,1.80632624212383,0
10.7284782078595,1.72857888827033,0
9.05028462457897,2.18804894215173,0
10.378809283348,1.93649028747696,0
10.0450214888476,2.07910420397777,0
9.76768438077266,2.16930098434365,0
9.36693796307562,1.542329613844,0
10.7450493403299,2.09394842520563,0
11.8954780745466,2.32496446222941,0
11.7237132355608,2.38104360400073,0
11.6064217274662,1.8753564186528,0
11.7515062896024,2.25319237681468,0
11.1585126583662,2.19445351113745,0
13.8051767901455,2.88763645394773,0
9.49076398142152,2.2768821542937,0
13.8791822041267,2.69774771875684,0
12.1727078839266,2.11481395865466,0
14.549946623873,2.36720849995831,0
11.9812355854944,2.314855679037,0
13.7781088143024,2.52586187421898,0
12.8798054930974,2.19376736463776,0
12.1880582280507,2.09062959992021,0
12.3560124450203,1.81922094201075,0
12.6953596787223,2.43155239081144,0
12.6462758588475,1.61378944999654,0
11.8749998184925,1.92900222638624,0
12.1795280526463,3.05487092464062,0
12.2364436289661,1.850315835961,0
13.3112895113828,2.81629116213364,0
12.6228877742805,2.01072978476514,0
11.4247134022586,1.21207795000844,0
11.724003642633,2.44164415805716,0
11.465222547869,2.23410124685679,0
12.1179085029082,2.40035669798313,0
12.4438196851095,2.39017802914137,0
12.0878552022173,2.24858253301858,0
10.7180635447983,2.53957380808172,0
12.4148354598166,2.79582211757243,0
12.6953574212177,1.89269651284644,0
13.2546501864114,1.53163908008358,0
13.0765948851119,2.1910308575831,0
14.9936337107014,1.98810180924096,0
13.8273300904057,2.77919733801697,0
14.7962787293483,2.52896477298245,0
13.8312246857253,2.56897785474033,0
14.5028631091209,2.38749050479614,0
13.4745305275604,2.67559237778613,0
13.4134767034832,2.29654356537295,0
13.0233535802991,1.82331328777072,0
12.9372544313212,1.80958960807239,0
12.5066870811323,1.91449163781793,0
19.7030413561418,8.00392190968874,0
53.7347703710546,33.637697771484,0
171.424109796975,35.1539704417237,1
156.335949906228,22.9803678565478,1
145.76527219893,36.6733331462634,1
176.386840702412,39.3439297041572,1
150.550720459669,30.6417381192235,1
161.460575910483,27.0698020531931,1
115.29994608743,18.7252551224137,1
138.288286860365,19.9785627362333,1
145.338077423989,29.8290593576239,1
131.723486379472,34.30062783353,1
126.960314076779,14.5699881444617,1
127.046849275141,30.1926915200656,1
150.56681010791,35.6166900462452,1
123.010916810781,21.6232627970932,1
126.702614683955,18.7014856876178,1
121.889245963728,17.393635246581,1
102.443741885732,21.3727493012738,1
165.382075849713,28.5304516678565,1
128.461734971561,20.5197793980424,1
165.930859908804,18.567904852386,1
125.581003990835,26.1665196452931,1
126.688502653458,27.8390600868783,1
130.983099106479,18.5808378131564,1
112.826416799584,33.4816525991556,1
107.364578521823,16.6540047264472,1
128.798374985664,26.5445391487725,1
99.3858912151078,23.1979363482344,1
137.259923152779,30.2243084326808,1
136.310750077594,31.0085420491532,1
180.341946470302,50.5157397774387,1
145.16556217126,56.0853787013569,1
151.270862250883,39.2498969729434,1
85.5414076995855,29.4299797276317,1
156.538114632781,48.9582158384584,1
132.073529992197,38.4353846029716,1
115.450560044625,26.9809702723666,1
91.2491644289756,23.0012785850424,1
148.213137049586,29.189438730186,1
129.972122122757,51.5214712274338,1
154.263653759883,26.0466430601757,1
163.7574626941,35.6073089045483,1
194.466650427735,31.7813859998879,1
197.014024045975,30.0017417795967,1
154.890826306251,29.6964512050761,1
106.465037718521,20.2148812108112,1
94.3575102536447,24.8552138251357,1
120.082829770005,25.5102773350204,1
124.529403427602,29.318493011799,1
142.940640777557,33.3541099865413,1
93.302261314821,33.8663740516518,1
104.659719775586,27.3086571772282,1
107.930253229471,31.9077388525839,1
108.047070869344,18.992898508721,1
111.935668610869,35.9678441551879,1
125.205925903851,33.0934931202716,1
114.113108749066,22.7904421877641,1
122.076112990293,27.5644684350149,1
118.404444786857,32.9538751598612,1
92.5211784506315,18.8273737425463,1
117.640631427218,23.7256689007401,1
111.51502797568,21.0058544883411,1
112.377685874382,24.7483993173004,1
109.384618189479,18.8514143659756,1
84.7418845189353,18.1642235216461,1
76.4341700877605,17.9082955678747,1
91.9931529278299,21.0381028559693,1
102.612956473183,29.6351558904213,1
128.751319630937,32.9448664279576,1
114.765470824044,28.0449283047535,1
114.1072592865,37.4686597419702,1
143.480120679508,30.7086999578079,1
82.8387713310982,28.2865592001735,1
158.945334547807,41.5884034671818,1
140.258843449143,39.0336475970784,1
142.684085095005,42.0947176770746,1
165.542316641872,32.4970904972659,1
125.065379940255,40.4316819378821,1
117.383848830458,30.2101449765429,1
153.741058724332,32.7393216474154,1
127.925946185156,40.6572906822423,1
116.093606285965,33.0600992752881,1
102.162001182442,23.3723444596114,1
143.390843221063,29.8918753281692,1
95.2392779232809,34.2195387931839,1
183.937505062625,44.1786358668561,1
177.070197603612,43.5973285230744,1
128.625660395356,47.7799368787506,1
121.313535172547,35.4853569759204,1
113.861856568859,31.9313586000735,1
122.53482908564,22.1931920563879,1
96.9572335245518,25.5578140045198,1
109.206216386778,37.6913771426497,1
110.207316316816,25.0449204504799,1
122.059318666409,32.3325012522185,1
160.532024904757,30.0487202830905,1
126.426706616634,31.2255222425982,1
139.56776387707,40.0981349403363,1
96.2897568214602,23.2434915618929,1
110.734420259657,30.1562068604657,1
137.379832778963,27.0448401311254,1
125.108489207604,26.7038706709154,1
97.0625427103639,31.4447590873807,1
117.733774221477,44.418558667737,1
113.839278233236,28.5211555760497,1
195.012147072379,38.2196440564077,1
147.377941274454,44.0327140621817,1
121.331096801672,38.9489365779404,1
156.000870513668,43.4331947490318,1
191.077746445796,44.3441975647719,1
153.846090804824,33.3114632218346,1
120.832284976904,37.7292328597638,1
131.135118318062,23.2261334385269,1
120.403119791763,25.6047836741017,1
100.946325524922,21.5909499316147,1
106.127025507958,24.4118760747996,1
109.254644071006,22.312875276507,1
106.871811325811,18.6360300224553,1
118.328368455483,33.038670815831,1
111.333280472784,36.1822643670262,1
115.365388759729,25.2631906956133,1
79.9889886222474,13.724250985709,1
137.696179736418,24.6311705303896,1
129.616941456363,33.3735853416918,1
92.8453930115441,25.8824896216193,1
105.883543668275,15.9288878301078,1
104.878939342351,17.3066268554943,1
100.397689599814,21.9676435083532,1
73.2125622416545,18.3138450361474,1
74.3620219484937,18.9601199154326,1
70.9296905562172,15.2652966119214,1
108.880618822292,23.5885719034277,1
98.7460715887735,35.708844597096,1
72.7812226931951,11.0700257157528,0
57.8049884080462,12.3040408802394,0
15.6466517520963,5.24824698046824,0
10.7943672421685,2.04056904353067,0
11.0159898540964,2.28754420451493,0
12.8663081859627,2.29601463941172,0
10.8756068206513,2.51844529445412,0
13.6737846827795,2.41193822930081,0
16.4424908898547,3.53394240343458,0
14.2385386358095,2.25677600273791,0
18.2658168781103,4.95375350743477,0
14.5595161252744,4.15947257374125,0
14.8438263580024,3.62797018026416,0
19.4263547004042,4.2450518005134,0
14.3908529798045,2.42000204814627,0
14.1310967518815,3.42542339675358,0
14.3968771982264,3.52368883220873,0
14.4213738169458,2.64855786199043,0
12.5500900429553,3.38479142927641,0
15.7009236752206,2.87381950655728,0
12.1591120372639,2.16285224320641,0
13.6014593613358,2.244554510227,0
15.9051099943348,3.03553814999273,0
13.5735415876377,2.04596705980072,0
14.0728535509669,2.76231103906364,0
18.2701543902522,2.61542143163059,0
18.0640341335243,2.50828265843167,0
