19.2928034338626,27.2071153474749,0
19.2543018760181,27.8359634909807,0
17.8037544196756,29.1653965131121,0
16.8471657608711,30.1135408271727,0
18.0785720416514,27.4722868820397,0
18.4644535384828,27.0823024320967,0
16.7261173948845,28.8529517888421,0
15.5852935959835,30.5512910169909,0
17.8248996928358,27.8806305269854,0
18.3552281797273,27.2389436607411,0
19.6909330522685,27.4168960125103,0
19.6006265691677,28.2446848901601,0
18.1771799503986,29.4059988551413,0
20.9423439575583,28.7216822883875,0
19.5929079739849,27.4913365608691,0
18.4159677560509,28.4122846625915,0
15.5119110375763,29.6987429665305,0
17.9095633577992,29.8700382399359,0
18.806188859338,27.7187576717034,0
18.7304652036849,27.4922522089498,0
18.619699355723,28.9310865731564,0
17.0621634811269,29.101910000474,0
17.9088691493419,28.0453954782776,0
19.9966500834987,29.1426872078637,0
17.6094977456877,28.2822356828824,0
17.2889076148565,29.03504842769,0
15.9749986702943,29.1096565944579,0
19.5088434245317,27.4404122900704,0
18.0335973050761,27.8421301058119,0
15.9527383983902,29.6932965429064,0
15.5496518049393,28.5698316564769,0
17.9599443303504,28.27387800499,0
18.6474968815582,27.0074122349173,0
18.3529146573855,28.6652752628909,0
17.1986429765393,30.150040376508,0
18.6665667192967,28.7355383100954,0
20.3048799185904,27.4941170431319,0
18.9165216963233,29.0582922655438,0
16.1170441788757,29.9139309112729,0
17.185874664211,29.4991893907264,0
20.2817057973015,29.0821110468314,0
18.950606864419,27.8891373771975,0
19.9519588796696,28.4337135542649,0
17.4586591325078,29.2977555670045,0
19.1796125634348,29.8585092763631,0
19.0161063642024,27.168965061266,0
18.7866702066928,27.953149316136,0
17.4943983619442,29.4362075983152,0
16.1318969318533,29.8378636890263,0
20.0961970716176,28.0452008967681,0
19.385917541826,27.2397832944524,0
17.1420501378414,29.1350933242386,0
16.4012028699728,30.1104780049875,0
17.8519781191795,28.8776017419588,0
21.3333450448235,27.4123847757417,0
18.5529931402971,27.6161200912732,0
16.8214842984094,28.4192894933228,0
15.6946506166917,29.347452266373,0
19.0866934736991,27.1805728524537,0
18.8923957516048,26.9689682381128,0
16.8072933492887,28.6546105933558,0
16.3846678559764,28.0669500844365,0
18.6858776272598,28.440703030716,0
20.1237728260149,26.5399124701688,0
16.7531824209422,26.9256636417097,0
16.1055763064672,29.4504554901778,0
16.4593998439463,27.7897804570176,0
17.8865734379609,25.5619826437555,0
16.6216142071385,27.1893573090998,0
15.399370991318,29.7721012933414,0
17.7655072031324,28.0554223257403,0
19.0288672044891,27.2922875355669,0
19.244539371987,26.7551192444674,0
17.4864639752177,28.8872415765972,0
16.0563588777736,29.7582465112237,0
19.8591943602508,27.9154339557499,0
19.6158983316416,26.728739749131,0
19.3475366286055,26.6446887059879,0
18.8027623857024,27.6468314149575,0
18.9867471083874,26.7124940613358,0
20.0475872203806,27.2857999286632,0
18.0213595875122,26.7681986913242,0
17.9207803120214,27.7284359352589,0
17.4725514553202,28.8075905484074,0
17.4627796770334,27.9369453029119,0
18.9970417847658,26.0875672233224,0
18.2964483217314,28.269816718175,0
16.2254035302212,29.885077164373,0
16.4015441988866,28.1310228494966,0
18.7386803193706,26.9428690211216,0
17.9677853364498,26.4869659158602,0
15.4032641215415,28.6368941839824,0
14.5381305540033,30.4414451776574,0
18.6558516207819,28.3222653742888,0
17.86292416325,26.6990025642248,0
17.6411378683394,27.9152792120144,0
14.0119161452968,29.103229233596,0
17.1830963120195,28.9783771553627,0
18.5810830387185,26.5211091887479,0
20.1597516507944,28.2757992093368,0
17.9422342324045,29.0803906558225,0
17.2115557074611,29.5682958158037,0
20.2521750552602,27.5405441910255,0
25.6588684934237,30.9759695584782,0
46.0597129241537,38.7252017463379,1
48.9087233160314,41.4137969486072,1
31.8521900670749,37.1007500216063,1
35.4145784018601,41.0371753672158,1
42.6859011352802,39.3652667157581,1
46.752656200182,34.7531728276094,1
37.6105188048649,40.8591146313014,1
48.6944503636408,37.9569361964346,1
41.4444617964849,41.4047211337038,1
46.6577644987864,33.7228113522516,1
39.9482424417498,40.5406338053876,1
41.5865527212382,39.6709219491014,1
49.7313639146194,43.3516880310225,1
55.1683990994518,41.6695901500102,1
30.1004968919937,35.4085883215061,1
35.8453094084714,34.633200053563,1
26.5016075848005,29.7124850580937,1
36.7132234310641,31.9626838371272,1
45.1380308225925,31.4922547433809,1
32.6351099982122,35.8322099432145,1
46.8243452649958,40.7510181428388,1
43.0641736373768,37.7947344357346,1
40.332923606293,37.5589080497255,1
38.7712180663112,37.8745010499287,1
31.1438563016391,32.6331500588979,1
31.4778965010752,29.9725176048005,1
36.8325866515224,31.5440405521531,1
30.3478774185623,36.0932839021544,0
23.4239346589568,32.8343246354737,0
27.1180790757969,30.0921405217705,0
20.7994113874515,30.7461745708964,0
19.9030341067503,29.9978549584144,0
23.0082180467178,30.9909036701072,0
21.5781836990267,32.4789051596725,0
19.0611326535133,31.5900114535586,0
23.2525589387341,31.0894143876657,0
19.2966454729809,29.3922163297349,0
19.3152071520436,31.4697011236463,0
18.5025854046991,32.8113168709235,0
21.3518501059133,31.2518603674513,0
22.6482902147846,30.7097845545903,0
19.3500996947847,32.9676264940131,0
16.1772497491609,34.5546981394434,0
19.5829607510299,31.6556067310239,0
22.486824367249,29.8676944505952,0
20.0379412587893,32.2287576365483,0
17.4186608694348,34.9192267951956,0
17.9061605741514,36.5140443745761,0
19.8770131914156,33.7572887772644,0
19.319262264648,26.6320288134646,0
27.2370986546368,34.9411521891294,0
18.6125819517761,32.1900905541078,0
20.5124090432032,30.2310514756318,0
23.699127648556,30.9156217167213,0
20.1324820313673,31.416684145591,0
18.6545872967278,33.3950254003503,0
15.8006696053095,33.924767745868,0
21.8711513888772,30.4399067391178,0
22.9112350622229,29.6930023603737,0
21.1108953352518,31.4509586114713,0
20.1708711811046,30.4305134434504,0
27.1646936562493,29.6107202106446,0
21.2609543811678,29.8342203265262,0
21.3935979480153,30.7095722351783,0
23.7279271206507,28.44216122784,0
21.9104464145352,30.3162647437947,0
19.9745413730252,32.0975172265328,0
22.2773779949011,30.8463970074596,0
21.3516727716473,32.4481754856224,0
19.1109159397199,32.200332759225,0
20.5884751713197,31.1389199636782,0
21.2938845396355,30.6733599546445,0
21.9694507795611,31.2038654140737,0
19.9198472714684,34.3612271151583,0
20.2222015832863,32.6257852401901,0
18.4815256690118,31.9501923537417,0
22.1671841444632,29.2832547895059,0
21.3140169932085,31.5204721591804,0
20.6107761428749,32.035656609311,0
17.6482876112265,34.0812138976034,0
19.4274639065563,33.2946840728955,0
21.7059843502565,30.4410586657098,0
19.2325126741593,30.4635252207691,0
19.8182730570635,32.2321489195805,0
21.12536913426,33.6263431497856,0
21.6380521284121,30.3519087770196,0
22.3918112567251,30.1676163899952,0
19.8729976945448,29.4204461348471,0
18.3335417617661,31.8964450447553,0
20.9206580272613,32.6451697201409,0
19.6673594332858,30.1590434479752,0
22.6414813155844,29.4762720978469,0
20.0617862331062,29.9777379540455,0
18.9346008786753,32.8883515997096,0
18.0527049243572,31.9176583161125,0
19.4022798700595,31.5676582729403,0
21.7763676044908,30.1262967197507,0
20.25582563199,30.5454369844269,0
21.2589643421645,31.0153755310884,0
17.9305056498139,32.3043579579806,0
21.3546273836426,30.51900447617,0
21.1800598709221,29.9392700851749,0
21.1164541617007,29.1457854898848,0
19.2996562240936,31.8896968598618,0
16.6995883499796,31.5131072193672,0
21.0786640869982,30.6171961098536,0
21.0963987066729,29.9220017701616,0
20.6304536625807,30.935030304972,0
20.1424507085593,31.0680968749791,0
20.1269717536096,32.0150323185081,0
19.7863934217109,29.7861909879638,0
21.8092332535849,28.8320955916389,0
19.9863376754499,29.8493298014802,0
16.5984531229923,32.6930058811319,0
17.9016311882311,31.9607897690485,0
21.5914391389085,30.5293052507158,0
22.4530044197574,29.3112953862225,0
21.2251683280405,29.9345741320568,0
22.7404652118906,29.1470387975403,0
23.0810085067116,29.8257180353505,0
19.721768418034,29.4785024593394,0
20.8617504565481,30.445362781064,0
20.5745899879806,29.7137505228883,0
20.4521551557958,32.0709867196355,0
20.5616833124746,29.3083071373158,0
19.0407720915618,29.4377032966705,0
20.9488521554961,29.2810192027935,0
22.68897119682,30.7905689854054,0
21.1375390750032,31.1034632204734,0
27.1341712575622,26.6899436173798,0
24.8706040101189,26.668918459861,0
20.2662109275868,29.7414051026085,0
21.7195915931475,29.5142230088151,0
23.2112673207251,29.8850907039028,0
39.2770621142958,38.4634800994294,0
36.1134103429123,42.4118360016807,1
47.9080865526325,36.4327439369113,1
29.4986976663365,39.9662719027162,1
33.809088687824,35.2669756693173,1
41.3245311613042,35.1979013080796,1
38.2284119689637,38.1569102246027,1
34.3961040139,38.0341543739402,1
50.2959933458303,48.1562157194022,1
40.3675323789283,46.3671849945883,1
55.8326982423877,48.4347225851114,1
42.0194997003531,35.2453484652137,1
34.4381833619994,37.7603720666389,1
39.9194400737292,42.8583869335082,1
33.0300974016148,34.0120826418293,1
58.1387174660332,49.5574109889316,1
51.8517098953549,41.9262855407881,1
51.7764098483154,30.7230985355647,1
62.8325373782819,48.8969720380824,1
38.2905656257345,34.3531307403387,1
36.1541721199283,33.7926280708095,1
38.4552430199024,37.6790229142633,1
37.5610739097063,36.6852390794942,1
43.5845935509034,35.7644672872243,1
30.6095975561079,30.7945268143823,1
35.955505760826,37.5808641001766,1
44.7022770402732,42.1456849039084,1
34.2399132165088,38.0322316492785,1
41.7363947443128,38.131432920541,1
39.5075343425614,36.9292188796173,1
38.2582865480476,40.4570211724491,1
35.4686757722481,46.108215938569,1
32.8592433083371,39.44708747007,1
38.4347847251593,41.3216549036004,1
37.2122526265076,38.2630314397041,1
31.2776335239445,39.9124092740953,1
29.5692179119995,37.4602726604808,1
39.8809923350407,49.4275390800484,1
29.3637883662755,48.7193632655926,1
36.5287476919703,41.7763600306483,1
34.6076494276006,43.8250291516269,1
38.7578858376823,44.6328967649511,1
32.6173981906749,42.0155055989692,1
31.0673391796145,42.5345982218627,1
39.7627021753896,38.8287556137437,1
31.9377376123856,39.062125960384,1
32.457585423578,41.0720950688124,1
33.9145112582664,43.1020304451068,1
83.3967713168095,75.2111015044464,1
21.6039857965368,30.6304318201445,0
29.8253109070648,38.7467574025261,0
39.8380291296939,35.1075636119975,0
20.4156266533726,28.7936287657057,0
17.7174565085359,30.334724583227,0
18.7444732026954,29.1411324265556,0
19.0406620510069,30.1205672937581,0
22.6846728005278,26.6220653631353,0
21.0044767978383,31.1557419652015,0
18.9183892034456,32.0904110006763,0
16.9725964846072,29.8806355147807,0
19.1999703261439,29.432564218665,0
20.0727419748262,28.4717299663935,0
21.7031533211117,28.4345519749288,0
16.8425368392146,30.3073400765295,0
19.8983099831704,28.5632544335353,0
17.8081861348858,31.8389941251278,0
20.8663264032004,30.5706021866068,0
19.8027781440135,26.6472596884586,0
20.1734708291665,30.1008700195962,0
15.8803490363232,32.7886146040534,0
18.1575298764435,29.7275357941957,0
20.333241127719,28.6109430845197,0
20.380006690551,30.6273078972064,0
18.660871533955,29.4599585640173,0
17.9874667582609,30.5765584120202,0
17.6841580019973,28.3359078431159,0
22.2289833049594,27.7523513424067,0
19.6974547272992,27.8538228374663,0
21.5986486994019,26.7480046773363,0
16.872101783515,30.6216077902251,0
16.5786783930542,28.7704745367238,0
24.0582456835481,26.2482316945419,0
20.7462880004211,25.4451290876411,0
22.5683463605217,25.7077011147259,0
17.8835952300566,27.5832613186545,0
17.3263508936417,28.3767201141416,0
22.3935011919725,26.5357737221678,0
18.7808655543425,26.4870385973873,0
18.3416532209482,27.4736379507316,0
17.2619682558088,27.6917033007789,0
17.4243912928218,29.0734066339553,0
16.6787466392605,27.8528238068487,0
19.4437618903288,27.7551576304483,0
19.5106828628969,27.0175928367598,0
18.53637166958,27.2060888742737,0
18.9910820614493,27.6112055983907,0
15.9849318781099,29.8899311562969,0
18.3814506717259,27.3754836021938,0
20.9939682739928,26.4016991676975,0
26.7227964239759,24.2103752901912,0
29.592686182574,23.3559313774045,0
18.8726817472484,27.0811647873997,0
19.3268287236567,26.5782228188081,0
19.1451289175311,26.3538265790657,0
18.7368068001122,27.1667848688163,0
17.6865633587802,27.8604848361643,0
23.8818670273611,24.8266659297177,0
23.9305118504483,25.9325071093535,0
18.1272451943983,25.9681051562638,0
19.0171461779561,27.5013286756024,0
17.4051910826964,30.5577732452972,0
17.6064889238248,29.3009210995066,0
19.0931808905862,30.063863408482,0
21.4162588601564,28.6581044488488,0
55.9307888528854,35.8126982794909,0
105.520571801041,62.3356193985258,0
72.2353896515866,45.251359763726,1
38.0148435503153,32.8226166273199,1
44.1161372643376,32.8717438590581,1
34.1825090963219,29.9306714398099,1
28.4618907349955,38.019900741303,1
29.221144695446,30.5147799709346,1
34.2910665975102,32.7445652817256,1
27.6736561641405,28.2472685389185,1
26.7921402558815,30.9929448881559,1
35.0905318352512,39.7180385587129,1
35.7012339868088,27.7029322168026,1
71.4515209830783,47.8336160093684,1
59.3947921786664,45.1980834146861,1
41.9929548599584,38.1285875667704,1
36.8217338588789,31.4213507968672,1
31.7944144075553,30.1706737891289,1
31.4186646635897,29.6916951483335,1
28.8996289129655,29.7991647168666,1
33.4268794740565,25.31495645032,1
31.6152643720907,26.3303514477372,1
26.0096467016171,28.859457027669,1
29.6974191790541,37.7174992580299,1
43.6611449267453,36.8057427347685,1
34.1691334258837,32.4198274251226,1
32.4930404841888,29.0130643547326,1
40.8672357438641,29.9036396244083,1
36.5007691493684,36.1024313249258,1
50.622270915409,36.2065324448188,1
60.2953705274282,39.5857096921604,1
36.5275715776498,42.0954496622604,1
32.3976731673545,33.2284185975858,1
28.3110570958403,31.7668668989202,1
35.175167471931,33.7005909343696,1
44.9736448299921,28.5365882180383,1
41.492664407641,28.453899038257,1
44.1246985729522,36.3501186347279,1
44.2868964258208,35.6035966927507,1
49.955221693476,43.0902317658589,1
39.3079343402916,33.9739500116609,1
38.7795586534502,38.0147697248229,1
36.4517410033459,38.0884154130667,1
46.6255191326979,39.1903022226185,1
38.3581520945023,32.6300079722094,1
38.2882021243275,28.1208792370071,1
28.8059818268571,31.1984261525672,1
36.1389360446621,34.3836276889106,1
50.6420739872711,35.0707097606236,1
26.8894861940792,30.3316485895443,1
35.2003365983366,30.8272224973364,1
27.502577930675,30.3762558770337,1
88.0019317986584,61.3898326317351,1
30.7271668411243,36.8777628852748,0
22.914288645251,30.5376498659168,0
21.8314904450784,28.8013480350868,0
17.2087815882008,23.7723112963873,0
23.3222920514102,23.382352719227,0
16.0973620700526,22.8353646224686,0
14.8287953652249,21.5455358784992,0
16.2035846161082,24.8323669623334,0
13.8366038009047,22.2275784224192,0
16.8500428919509,20.3256653276954,0
15.1567093128297,20.9917763395685,0
14.8540837307753,19.7696437261562,0
15.5322758158621,20.8062180883554,0
13.8411732628795,20.0322793785808,0
13.5351794832057,20.743074282797,0
14.6665123601966,20.8375103489139,0
16.4858347099055,20.6200535257757,0
14.2637134858954,21.1587635821606,0
15.3198255376993,20.9924444301332,0
16.2198488560626,20.9737383258049,0
19.7061314639878,23.2321442547441,0
18.1398398816958,20.8204639542026,0
16.3311272804458,21.3296669757138,0
15.1563309753918,21.3342619808119,0
14.4063041808593,21.8326444502716,0
17.428991742545,21.0217116866733,0
16.1050523388574,22.6110278245085,0
15.4567245581346,24.7729820161846,0
15.7162498134244,23.7230464408275,0
15.3793936098717,23.8275152147792,0
18.6025408511343,19.3699511624522,0
18.9177364812871,22.9294118203567,0
16.0169153790179,23.6501310705038,0
15.9243133669086,22.2831330889418,0
12.3537697224675,25.2049821369727,0
14.7154278227915,22.5793816892331,0
14.4973788634725,22.0094069057214,0
17.7936682442889,21.0251474535593,0
15.2505567183823,22.3759298657789,0
13.3758774770643,25.3745801607367,0
12.4206109849136,24.4172958122763,0
14.3439433887087,20.3172887611679,0
17.0696654832304,20.1156677945977,0
16.9098390573306,21.082256360305,0
18.3344399024971,22.1398116378696,0
10.2803259429278,22.681348699217,0
14.6437106270713,20.7979193206171,0
14.6660359653653,18.2516777680302,0
15.5781697332228,19.7564844527494,0
13.923594859594,20.51694683987,0
12.4191280433758,21.1399920435026,0
16.2991382417479,18.882641915173,0
15.2292716817625,17.7798778279247,0
14.8932319898179,18.4885179666517,0
12.7594490273687,18.0885077956944,0
13.1502878708583,19.7245677016931,0
12.8622606522329,20.6320436710776,0
11.7000467924592,19.9248802787967,0
