34.3436848423057,3.29221800130414,0
32.6162492302296,3.03564956309953,0
33.6365226508389,4.79321228375551,0
33.367822334032,3.5946497784092,0
35.3083521071676,5.33549253269752,0
33.1246906563727,2.45144047239204,0
36.5592793464642,5.01820839299898,0
33.3303137011713,3.04596546036441,0
35.3859458727734,5.50550457127564,0
34.380180608331,3.41460753539861,0
34.051995446461,3.21062413300115,0
34.810511995977,3.64166229173748,0
31.2517460875904,2.93225450662504,0
33.4052272802907,4.27186841852506,0
32.3360538032141,2.62103368796856,0
35.8629325850592,4.5699263825707,0
31.8967479336787,2.30850546559319,0
35.2239126058065,4.12658405323962,0
33.4964064313274,2.4966995782691,0
34.4359208785713,4.25787436106069,0
33.9786245493178,3.28272675872631,0
35.1397126667144,3.85486504945531,0
34.6575215614327,5.2853187139129,0
32.5975683197296,2.57393470076785,0
36.3381617234199,5.24120484549638,0
33.6710053815335,2.443183718195,0
36.0003160798943,4.96898273961757,0
31.8980054523136,2.16727147729913,0
35.7288056220421,4.11482661820462,0
32.7248855588261,2.49737122196902,0
35.8079167545605,5.39075779439953,0
35.165727492934,4.90562723555761,0
33.8268291276113,3.79828638685886,0
35.64557162822,5.11390994838947,0
34.1585139774296,2.96470589591897,0
36.5383713342792,5.49617640699097,0
32.9898602536817,3.1088020690842,0
36.0049302314602,5.22065788590634,0
33.0740734667831,2.37107815529505,0
34.8990044970128,5.44349480314069,0
34.4672396817587,2.68948764101022,0
33.4446792342376,4.45981347981008,0
34.3269759704484,2.9254952557282,0
34.8667707782049,4.62598082834995,0
34.0482345786674,4.23197967817195,0
34.8563893883022,4.27637225724,0
36.3382052201864,6.01920241536104,0
33.9622608004294,3.25375341082179,0
35.7640116549463,5.46868445379289,0
32.239659105682,1.95698855311646,0
35.2401846211809,3.44864369328742,0
31.8579115861211,1.95417759972192,0
36.1056622682923,5.89498636905046,0
35.563974822469,4.66890425049605,0
35.5462481852583,2.26500406066881,0
32.0700278381443,3.38580668995189,0
34.911136787536,5.25916792599306,0
40.0989658532524,4.86253711866955,0
33.3370672358375,4.33697451713357,0
33.0265150794499,4.3231398811364,0
37.508761055014,4.43299496327821,0
36.7518909774804,5.73894999500595,0
35.3308627709117,3.88049472529196,0
37.3022999491281,6.57110094201092,0
32.1092765270356,5.66360551416043,0
34.1134999424976,4.48998073568989,0
34.8064770709131,3.57471097049801,0
206.54258982781,50.4883561997182,1
181.88203737764,53.8842076210536,1
222.727684919088,50.2460997244094,1
164.263723350978,45.5852587871012,1
213.121250394418,56.8188883815888,1
207.72727811894,37.0675686417478,1
153.034726470503,36.4566081900186,1
155.681680036639,33.4879724625742,1
127.277806764041,26.331597360446,1
165.625594047934,27.6931368377835,1
180.12773090837,36.801808503925,1
181.031028965749,45.6929998424845,1
105.901816295337,25.7561641420618,1
131.041224187431,46.8403725160169,1
143.866318269421,49.9286791888163,1
186.078032601038,49.9825072281377,1
163.179079569364,66.4446760865553,1
141.804679143406,29.212703321894,1
142.078474713716,35.5765147070121,1
174.017135222076,40.1746241663468,1
114.892606839716,25.0951490359216,1
160.091526421952,32.8177056693878,1
186.123293652799,31.1757238827821,1
137.865836217134,29.0534177017832,1
162.118747366158,30.5916546344557,1
155.888496861925,28.7443328329296,1
207.621711320611,44.4131229901049,1
193.572993813466,57.900130753873,1
198.122283194791,64.7567731011681,1
126.092367011319,43.2037952469645,1
162.020960372749,36.7829090098772,1
200.622121430959,44.9311045895097,1
128.221919044595,38.4061569388841,1
152.204987621962,33.2402702820846,1
148.603826014667,30.7882477594587,1
111.484233068165,34.1661812986821,1
101.082837962235,23.764728612457,1
137.637077522002,30.2730107124467,1
112.55490153702,22.4328290763369,1
116.520170139154,22.5460864735517,1
131.80489720403,28.4801649630476,1
150.677690352712,25.7374850612754,1
130.318047590128,29.0700563321036,1
171.153170757603,37.3680394500781,1
135.634212239928,31.0660242987438,1
123.836117865164,20.7329955837699,1
121.214005544992,23.9373967529599,1
98.455343652035,17.50697991402,1
40.6701280371812,4.40887277427612,0
39.5651330626172,5.0071484027522,0
33.7380728792584,4.3737606761687,0
35.9751628216619,4.73026385526345,0
36.5413960482797,5.51963947330145,0
34.1840840095921,4.10112736766536,0
36.1065726174161,4.62798855654444,0
37.3892447677032,3.58894851331479,0
36.7711266342831,5.34596099857861,0
33.2518047187319,2.25605850046315,0
36.4757710872868,5.92872139715549,0
33.5948743937211,2.89656762367604,0
37.11318044234,4.82832659576356,0
35.5302025160748,4.1353386599368,0
34.5128728414073,4.1983041377221,0
36.0559503779422,4.41312500478911,0
35.1003842258285,2.77434400473067,0
34.8955827772811,5.15918241346747,0
34.4951638361851,2.46596067773946,0
37.1066674339115,5.61978812030729,0
36.9247821062735,3.79867565842818,0
34.2195550609486,4.17941031325568,0
34.3598175407299,4.11881134962599,0
35.3702288795174,4.51689858331917,0
37.5300296788317,6.31239800470801,0
33.4103474699991,2.77934089924771,0
37.1031509394786,6.23993447557153,0
35.5346870879462,3.44936393390598,0
36.7123452727473,4.6702345195608,0
32.6703210113221,3.18404273005526,0
34.2128733529677,3.96514969142773,0
34.0977874474871,4.57208296824077,0
36.3305499122493,3.66573727442974,0
36.5443112762559,6.78464754765882,0
34.3395591881822,1.97528934405417,0
35.5649898564575,4.54856941812548,0
33.3850826831815,3.11238594939489,0
33.2975672665741,3.85945099109611,0
32.4588786892864,3.54847982435036,0
33.7959229214084,4.21039474593028,0
34.9020028756539,4.85130219475196,0
33.115541220047,3.45986286644284,0
35.5709782770914,5.2211495741964,0
32.6882984229035,1.99373233280702,0
37.1030936367471,5.64047514675598,0
33.143957308629,3.25594142452415,0
34.629546587663,5.23286279505191,0
35.214249437645,3.91810829614187,0
36.2989332361227,3.7234588877234,0
35.0903819945352,6.32973088803531,0
32.7391900143884,2.91832524988154,0
33.9143439862683,4.27163315605919,0
32.0286342594747,2.1059593965186,0
35.986440006844,5.28126162017455,0
36.2906657847752,4.50577578326489,0
32.5906295672705,4.06860317468053,0
35.5301270637485,5.22419280595143,0
30.9528424716293,2.68426989508754,0
34.8856558146043,4.6349543770418,0
32.8078850885811,2.97751338558459,0
36.4627536375364,5.46821473166771,0
34.0578619424741,3.15251823219341,0
34.1244496956821,4.9940301295768,0
32.3995225585621,4.45047122103798,0
35.9985264309095,4.47302413635977,0
34.2934586754614,4.82595904185878,0
34.2979890766313,3.40283967994962,0
34.4062995449756,4.43389898706804,0
34.4944169156963,2.29463620201633,0
32.5150855984183,4.85416868552163,0
33.2831856849442,3.60670569085911,0
31.541506775449,3.8417542723963,0
34.2154844108125,3.51564866326353,0
34.0675925620754,2.89890153046222,0
35.0162636597323,4.65260164698393,0
33.2772778712579,2.7385098107669,0
35.3165225921759,5.24231309278793,0
33.5445860217228,3.22770148223988,0
33.1871263657258,4.19942268723391,0
35.4040033448297,3.40645017279761,0
34.8235969256985,4.28302504239697,0
36.3302031425457,4.57979547175198,0
32.6162962444877,2.93693578491536,0
35.1444418266936,5.17460274312971,0
36.0182444787021,3.79242047721044,0
37.2241136742999,5.70382500815618,0
34.5383433860784,3.57546981785397,0
34.4950020257253,3.33469044157243,0
34.9865969906539,4.96538388241258,0
35.0262853199763,3.62491627394057,0
35.7832527566855,6.31864885323976,0
31.6454383335765,3.13928388611072,0
36.2653731901664,5.10626619989775,0
33.45722912817,3.55166053238311,0
36.4416212531987,4.62412324787344,0
35.3628689511038,5.05370507920586,0
34.6743014562866,3.87463197909933,0
35.1062430569277,6.13957659564211,0
34.6227840823419,4.26731325253746,0
35.9561957895078,5.53234640849767,0
32.2745337091311,2.73637612896866,0
33.9467938099534,5.24645622479443,0
33.4088778591954,4.27710738953117,0
34.714548575274,3.74034135406845,0
34.937980920037,5.26987730268571,0
31.1716871710855,3.03179365989415,0
34.6369035863389,4.03731020020614,0
34.2217615480101,2.30615291876051,0
35.356205677437,5.34993483450741,0
34.4769591701891,4.30825716979156,0
35.6684064291205,4.51851561589201,0
34.4847045851756,4.96843060572652,0
33.3123021650533,3.07646286013058,0
33.3412588851225,4.80144929420217,0
33.6531589825464,3.77713988952349,0
34.4222733340465,6.4100846947942,0
33.3520598930018,3.50335969640224,0
34.6569064705141,5.09685959052429,0
33.5433726127746,3.78173289218623,0
31.6010388122769,3.40180375291584,0
34.8004654066274,5.04161488251388,0
34.0117607932735,2.87546528502003,0
31.9736832044371,4.38008128444218,0
32.1861196927349,3.49753229570748,0
30.4504981445765,4.43220634632512,0
31.3737791844044,3.81591340692343,0
32.5704877562383,4.47617944394265,0
35.0685168996853,4.72232615504501,0
31.9623734849787,3.62160845918659,0
33.7726058903602,4.83174032654779,0
29.5667608407046,3.71108038175791,0
33.1667405316156,5.86901777147017,0
32.6378911573205,2.95773767722505,0
34.3850202969858,5.66801421787442,0
34.2741865700343,5.10911981876145,0
31.4007584153038,4.26511274844065,0
31.561851046179,2.77487868240184,0
31.9490900385032,4.02732395278761,0
34.3458735014326,5.623598966694,0
33.2776326898946,3.57342956437827,0
33.1203015569984,4.84498226068388,0
29.4934361688018,3.13957541850012,0
30.7826345150951,4.92291348611003,0
32.3368091972625,4.33264559864211,0
31.4951426671946,3.27296703154326,0
96.4319663656394,24.1090918968022,1
139.989569131761,37.2327062871132,1
165.480118025839,42.3054649755508,1
191.703567600693,44.3323185573495,1
152.553345231049,36.3506492420311,1
154.76102980735,39.0680097065259,1
99.8071021925164,22.320254895571,1
93.1883956556435,21.4452928238762,1
98.1578595735801,26.1281104496201,1
84.4431950186446,20.7679505361371,1
123.519235120089,21.9858474046945,1
82.7210908786547,23.0023942445759,1
92.2775824713548,21.3503468777442,1
130.883138905216,30.335358717326,1
142.828575771293,29.0330049197259,1
150.63891448263,44.8073124079505,1
122.537100535496,26.7216160226792,1
126.087478235496,22.2999111270737,1
100.724793718911,29.5958221551381,1
86.4953396867356,32.1776176267186,1
111.025264209071,29.8864419528559,1
128.457755133716,22.0750364660379,1
122.357277852322,28.6349358385701,1
116.984940475432,23.8717266450229,1
136.640822556312,24.7417412998823,1
133.524755390368,30.4931755272377,1
131.317354369412,31.2207501005294,1
103.699785846471,28.9378316900431,1
111.213361249833,38.4590549980506,1
115.212453295017,25.5939690968539,1
92.3568139874649,31.9722441492744,1
130.823688563904,23.4836393542319,1
131.652727293392,34.1355931484637,1
123.107144308751,24.803086725316,1
139.701370980878,20.7953970599025,1
110.183205255284,20.7269396983676,1
99.9655737254064,27.5238262408214,1
140.720320543262,42.0377165028239,1
196.233577072308,56.6352297274205,1
141.90794708655,39.9781141248428,1
175.49520258604,30.878108848946,1
173.045602696452,39.8830873638603,1
128.983266436799,26.5873196457901,1
93.5953136859892,23.4862899991604,1
97.6736808918754,21.4581866994044,1
72.6345296145124,25.5058335107131,1
105.479089997879,22.662852951016,1
100.867721479174,25.4992692460081,1
75.9494874166987,27.8450800409983,1
138.508832826421,41.611730294761,1
177.7751156234,43.208969610879,1
195.978686730682,37.7197268816905,1
235.251412467312,39.9104058395609,1
146.017209980129,58.3665901906555,1
137.37783394665,65.297789009405,1
105.241745367238,36.9720734463439,1
132.558457276017,31.5687010541434,1
114.444368424842,39.6865298627736,1
90.6460038191054,20.4183636573242,1
148.452294926838,36.1962010169816,1
155.81768733712,30.0012807693536,1
191.029745313578,49.5427839713163,1
189.537330216265,49.858519513426,1
144.628424951343,34.1600486616803,1
117.709715216151,28.2969688622386,1
112.828286406404,36.206989648169,1
148.928889904956,34.7807441349991,1
194.607501708354,53.4575493165855,1
110.893760320347,26.9997046666902,1
34.2863820067447,3.42265997423103,0
33.5112344754578,2.46053362963528,0
33.4802279976784,4.58820403236743,0
34.238753583616,2.71168596936405,0
37.9158402159604,6.04353998452309,0
35.0207854056489,3.5518672121677,0
35.2806323012125,4.97850133319174,0
30.7302643537034,3.2178522673954,0
34.9628564295436,5.21667832461595,0
33.5031961169871,3.51547707019516,0
32.4531058539725,4.06481885398837,0
36.7890337510907,4.58920149873885,0
30.1259085915338,3.38387001645116,0
33.4288713983432,5.03319029384093,0
35.6170584707633,3.17402781806945,0
33.0960151531009,4.6629189680238,0
33.4633364377967,3.84703969599713,0
34.4704607382145,4.6264171544936,0
31.701765665532,3.67999248407999,0
34.0869079373812,3.75657474575253,0
34.9756866168035,5.26917494776472,0
31.7244583608958,3.38643514951963,0
34.3778001023075,5.58570871788329,0
30.902651865069,2.69279790251025,0
34.5975621441843,4.3953306360109,0
32.9295774980009,3.77526784368754,0
33.4502969744904,3.76278497303212,0
34.3390678101116,4.3873763374364,0
33.4644074449271,3.27758535771758,0
31.8529043338198,4.3354704713252,0
31.3171680926512,3.4443923968234,0
35.4421662539819,5.37954037726128,0
31.5715814849302,2.76270242807228,0
35.0647169719992,4.81282818478587,0
30.8789872675464,2.80805834152604,0
32.1846841733915,3.8831959504981,0
31.5467695478578,3.10996659214858,0
32.5740893502151,2.49947163701067,0
31.743225985749,5.09857002392939,0
31.0651357289353,2.5664660261309,0
33.2378566809441,4.55856361483529,0
29.7738881178467,1.75758436518928,0
31.8237699285818,4.12001764009228,0
30.6871068167417,2.91968914542624,0
32.5341250415363,3.92442759949644,0
33.1898995958821,4.40115668941705,0
31.2277465892586,3.77332170397665,0
32.3384991194276,4.90014643816021,0
32.9141971275471,2.54264679904473,0
31.8470209085785,3.50518103242367,0
31.6800032919448,2.35941644449423,0
32.8492787630921,5.05666591360622,0
31.8619805996891,3.62000539879429,0
33.7605466021486,4.31860336656009,0
30.3793208620518,3.58119601292747,0
31.9481938646454,2.95095845399488,0
31.5930070358085,3.37470269567799,0
32.0706890944604,3.29320390241653,0
34.6954379589192,4.88529145420573,0
30.3229488554121,3.52383817692641,0
32.168825349635,4.14091517209956,0
31.8802443367275,3.43375013505619,0
31.2302319792996,4.59625741740365,0
33.0002888307746,5.45233722001936,0
31.658765104741,3.30254666546984,0
33.4923530562628,4.63753611477979,0
31.7033521693687,2.07766340918123,0
31.6036481430624,4.42269326249235,0
29.7011038103719,2.7878880130743,0
32.1388972173761,4.10049428289536,0
32.1042634945766,4.10320368902183,0
31.0245416710861,3.45212218372512,0
32.8408174174921,4.7847088213222,0
30.6761849518031,2.69425251535339,0
32.7327538996872,3.57633173634781,0
33.2999397635724,2.61391237795656,0
31.0036259713001,5.57069017349511,0
32.1139563179865,2.97009820738238,0
31.8723223158635,4.03510002357876,0
32.353521798268,3.96593052086562,0
31.7293363758966,2.76271958495933,0
34.8916852436074,6.09342906392854,0
32.9074425032041,2.41961532503545,0
35.2282341818247,4.60843322091851,0
30.847209478476,2.60734332204782,0
33.1441918174506,5.06952014732982,0
32.4759333838606,3.76545884747039,0
31.278816543487,3.22732209319588,0
33.1032715232417,3.61658528434063,0
31.3501114104089,2.99814193476916,0
35.0274489774526,5.10660721464274,0
31.6802829354831,2.8496970087349,0
33.2766277862777,4.40137247229311,0
33.5014994135941,3.98022981352682,0
31.2335645456779,3.78181860400123,0
33.6197736254421,4.29004355797294,0
31.9881721350167,3.1793196007395,0
33.3614490604586,4.88035695420046,0
30.4638409111029,1.9553153864273,0
31.9899499449772,5.3556968784722,0
31.0715765434526,3.26891029674255,0
33.8724513958065,4.99343533455349,0
34.1930531849996,3.66590739141641,0
31.8756977100457,3.75568933613636,0
33.1121726036412,5.22538861800185,0
31.7285027789427,3.46646823066909,0
34.0771094779405,4.7963086046523,0
32.7444519875844,3.41228473305439,0
30.5981012158573,3.24044585018067,0
32.3644341989324,3.35141900174757,0
32.8186605162896,3.16129359002947,0
33.3346475267153,4.86611934721636,0
30.7533291841218,2.49317213669658,0
32.1712227918056,3.87342538499641,0
32.2790311616183,2.60593938057407,0
32.3313966220744,4.51797025214046,0
31.8387411863789,3.28332036444056,0
32.6334103976435,5.10178868807643,0
31.4936074411381,4.24656970183977,0
31.139221150027,2.39755124353404,0
34.512966831471,5.02112006364389,0
31.114232186299,2.52642140068352,0
34.1524467414391,4.69514598484623,0
32.0822323937598,2.70120735582756,0
33.779548381255,4.47441429807725,0
32.0542796958939,3.32690701535399,0
33.226493562127,3.75582262986682,0
32.9993742541638,4.74066611838425,0
32.6015321459807,3.88798299216152,0
33.2754339234769,5.99229310776396,0
32.8106409339247,3.33187055140806,0
33.9637732460042,4.18121503737121,0
32.1635286148388,2.94266429628516,0
34.6068132385294,5.90887411355886,0
33.7400159708638,4.36623957745623,0
34.7026973505362,4.98092731509696,0
35.2254290242578,6.10061453884754,0
30.5283849791771,2.76453831280584,0
32.9441822108249,3.52926266620833,0
30.8967617813553,2.6476028927968,0
33.3683378400712,4.33125513943121,0
33.1230436292078,3.47914986639989,0
32.6768257883845,3.82455349991964,0
30.2673345848265,3.2585889206473,0
30.8361177989758,3.639319849423,0
33.2969063259748,5.38158354830201,0
31.4297979667001,2.50731129359708,0
35.3100570511219,5.55627371963,0
32.5883468626747,3.27762856794444,0
34.3620090593732,4.17176053580992,0
32.7486996319487,3.96470660450852,0
31.614498394212,2.4341187515459,0
32.1069869128592,4.27090525059488,0
30.5268209773859,3.26571380258551,0
33.1106836860827,5.12660615125345,0
32.7602281195153,2.78100643987967,0
32.9365206188623,5.89277688912511,0
31.6858484261747,3.19622126583836,0
33.0391111095742,3.5208450027387,0
31.1176510929345,4.03791545223531,0
31.41632229885,2.70517599282728,0
31.1637897622461,3.66338641566539,0
30.4545359629223,2.52903836493228,0
30.9009241123254,4.50678078725553,0
29.4857691121431,3.42706474391862,0
32.4252242512031,5.32862371121024,0
33.0452097538144,5.37463712091067,0
32.060574651073,3.17949434855463,0
33.2400995128802,4.76833400888476,0
31.6838618442519,2.63023274909381,0
33.4514394288875,3.9003652806623,0
31.5915364076057,2.8748756577444,0
34.7016967007079,4.82085404527866,0
31.153568057195,3.31832684733378,0
31.1399023415553,4.19403496020775,0
32.2731549142418,5.52122405926189,0
30.61683645722,3.05628298979334,0
32.5887485907835,5.48291175260569,0
31.4799204767399,3.03436030315084,0
32.6424700202379,5.19818036629788,0
32.9495786846918,3.1188916382199,0
32.4195422069529,3.24468842280334,0
31.8877303045744,3.57485534202984,0
31.046364660128,3.4359812820523,0
33.8921604616798,5.01894659850439,0
30.7319513574538,2.45379866570497,0
33.1132199987047,4.41309378185769,0
31.3099038501207,3.05648533702946,0
32.8696250887412,3.81124155041675,0
32.9908911936789,3.99944460768293,0
29.8035172574766,3.90952870141482,0
34.1097633631718,5.62816967132093,0
30.6827350735135,2.44806789627433,0
32.3108926891049,4.62227889547716,0
31.0440609719631,2.5430034944162,0
34.012571448268,5.21032187912937,0
30.6420432673143,3.32941006252358,0
33.6714657723788,3.55345085933337,0
33.3288468002111,3.13404185026688,0
31.7397234617439,3.39126150897585,0
31.6630246299814,4.44959337465949,0
29.3957902599517,2.62037302768129,0
34.5739021899987,6.39074287501639,0
31.3030748962238,2.37072494179104,0
33.6874848421085,5.13740610422951,0
30.1216127770171,3.42571899604141,0
30.0654209191211,4.32700964183551,0
32.4417795216757,3.99692239547253,0
32.7044891594003,2.60188774578846,0
34.7805406274026,5.27615148243537,0
32.5710194456789,2.32389652732883,0
35.1009368567995,5.40456636470598,0
30.2760326460576,3.96522990404899,0
32.3161609857189,3.61267184136293,0
31.8988883033129,4.30339867619778,0
32.2945693394088,2.9980472274196,0
34.3375364224652,4.91172982584636,0
32.2434352637137,2.41083288105542,0
35.4350608908555,5.91442565465228,0
30.2809884396892,2.52866463317778,0
34.218322316568,5.72246578432278,0
30.8546062661387,3.01979951851412,0
34.0124515300306,4.73438889149643,0
32.0820526457517,4.24638230167773,0
31.2067699963422,2.42452733778898,0
33.1383781492074,4.55250669257675,0
31.0066100628112,2.36936487399438,0
32.7664828307457,4.76993927084202,0
29.8907135798235,2.28519817945562,0
29.7604143999436,2.65978559847226,0
31.7684020404701,3.69975679682832,0
30.078663809163,2.12458909233075,0
32.0723127478961,3.66196085710936,0
30.6185549382446,2.39874443703735,0
33.2515448882913,4.56433996884981,0
28.5107585015406,2.47378906819948,0
32.1831643505533,4.9961040441509,0
31.007977374055,3.50718068784179,0
33.3899857852978,5.20763860448916,0
33.1966912673209,4.43314424206831,0
29.5617393496939,3.18406985241951,0
32.8744234875449,5.01041637815945,0
30.6357529511056,3.31603413841334,0
32.8154364019485,4.42059199463996,0
30.2035297871548,3.38820651453472,0
34.279348575246,5.01500751359156,0
33.3434979208683,4.88223040430997,0
30.5964999276409,2.98500975007667,0
31.9643484700392,4.25921061821111,0
31.4968836037653,3.02043953319725,0
32.6134798436149,4.69518777122114,0
29.533361854879,2.14931451360934,0
30.8490939650327,4.87690146775378,0
31.7779032251938,4.02428827187779,0
29.7838038769169,2.5535691869079,0
30.2201125786925,3.24974189386535,0
30.2906802125915,3.44464331260183,0
34.4476258161426,4.8234808136664,0
31.371745775374,3.8738587366155,0
32.2031453231694,4.74190377555023,0
30.094675909972,2.47981734360536,0
31.3427522854654,4.9202245094194,0
31.0461238871492,4.17564754370161,0
31.1429175511193,4.74849365520882,0
31.1370265243223,3.8853819376284,0
30.4649406662222,2.90703430923992,0
31.6363687534524,3.88832627106014,0
30.8101475181469,2.92621773149626,0
33.9304516563021,4.60029220336498,0
30.0814154575525,2.43604498817124,0
32.9154250477889,4.06228308330269,0
30.6171326908634,3.06285646821352,0
33.3398385006649,4.83467103466456,0
33.1919770869902,4.43155034369398,0
32.2570973002514,3.16747130552514,0
32.4690604777314,4.43034131406255,0
30.4375281135182,3.0032602268653,0
32.1073861769911,5.35518118465675,0
30.4952028191739,2.37182787743691,0
31.0749329324771,4.59477660278632,0
31.8586086752075,3.2711723043422,0
34.09714752851,5.36757513085881,0
30.3094816454245,4.16218383981451,0
31.1273587509421,3.87950458764025,0
31.7201230760284,4.13783244812955,0
29.378786069335,2.50999956469993,0
32.6692982372894,4.34787732345681,0
29.9004939013361,3.62014958440485,0
32.7066746739894,5.91588910318385,0
31.331813585411,2.89737925309099,0
32.3115573146321,4.71264111812725,0
30.9368244872974,3.05906677965173,0
33.4845520005826,5.60509735530919,0
32.2112615088116,3.32413791478977,0
31.650531180454,4.98887952984187,0
32.8755304770908,4.0106906848146,0
30.0558392760115,2.63417955798397,0
30.8229778402252,4.50842380180094,0
29.4944661744597,2.90418984778933,0
30.7919595322684,3.97388063032987,0
29.96926352657,2.17680954310751,0
30.4033533454709,4.28628782594695,0
29.6068670213037,2.25186223962152,0
31.4682618945627,4.25076118660979,0
28.4453937205928,2.86049461091029,0
31.7593510091396,3.93109427212563,0
29.7263215831027,4.12943358936892,0
29.8379199381989,3.10615125263351,0
31.7513093479845,4.56136348699684,0
29.4896847944509,2.74398314526995,0
31.9351747114347,4.45771256419784,0
29.8236441857916,2.69641201126657,0
32.7421025248765,4.33800392449077,0
31.1030926822501,2.05706942225727,0
32.2427236020486,4.4314654804505,0
29.3945082870331,3.24988925839183,0
32.3649977448381,4.97745205389799,0
29.6177942800235,3.42657488096055,0
31.6919666223199,3.21364995289881,0
30.5060826709236,4.4744749774232,0
31.3113340935318,3.50788062450294,0
32.7302393332944,4.18791867509151,0
30.1397763435414,2.36279029532242,0
31.7655163453533,3.94226039450711,0
30.9221735020952,2.56489093769584,0
33.2079287711874,3.74174096726706,0
29.0011693139007,2.26048454681784,0
31.8814045122781,3.60825710878229,0
31.1467376366405,4.37998246514962,0
31.0326299425061,4.15449147667352,0
33.0836036051814,5.36939892326256,0
28.6645946382697,3.64956849312131,0
112.512710146205,30.9127459119762,1
128.220791517716,26.3909092738394,1
109.629500642248,16.956320261858,1
120.308390496131,25.7355991454415,1
107.912521170443,22.8674031911331,1
123.7003018515,43.8916912606964,1
110.130266129642,26.8644074075513,1
102.542110885426,20.3595180666814,1
112.338440385757,29.8037030098746,1
127.723755773897,42.1243836767194,1
146.253509147358,32.1353975840736,1
151.109515185276,35.3317668345803,1
120.961112464284,35.9061622376179,1
114.125667678301,28.8151548417996,1
107.906407100626,31.9516947809709,1
124.066005795056,25.2313648992124,1
131.193530399815,29.2320148780879,1
86.6379521807508,16.7735058766804,1
113.034128660977,21.712287015941,1
132.012073855041,27.2150006967618,1
97.8386333781068,27.5821276431744,1
89.1331565159472,26.1587822686583,1
71.716981150187,15.973363421922,1
88.0836740331054,34.2926842924402,1
142.510306024112,25.2936237114202,1
126.097454303794,33.4664211001498,1
167.804524186025,30.0333203625359,1
115.788164207196,37.6382541218654,1
151.253870652358,49.2977365777685,1
164.998047556307,33.9863976891186,1
143.048581257533,37.0552098738668,1
127.65874926063,36.5814691634769,1
125.93061409411,33.5666350758575,1
165.187109599838,30.1181271745471,1
132.382555084095,37.424755695432,1
185.960972944421,55.6353087933217,1
141.242113248784,29.3288968505985,1
103.725485575257,28.377761855493,1
124.366295432222,36.4483752621733,1
125.041128797639,40.8943975514271,1
115.634591142991,47.4405865196144,1
94.3359759457496,24.7234270047225,1
155.821146057149,38.2917829529975,1
140.039984487565,34.7268798311936,1
103.884283745491,23.0311916176011,1
90.3367567370813,22.1369787986152,1
143.827079842014,23.5362416030705,1
104.406919453313,26.094496542492,1
137.15993685331,20.8009191475083,1
119.123491529988,18.8957539632955,1
110.058415040311,22.2640919182071,1
93.9510948547816,37.4576084518033,1
87.7173420641345,25.2524325231652,1
139.819678970438,37.8664528492432,1
87.2962324059765,26.2810480812375,1
154.321130575605,32.6906517145822,1
119.385494229301,29.78380410141,1
78.0178344073656,25.2137623300413,1
143.346391440324,30.0047167453923,1
102.032988602597,31.9192852348255,1
128.260634771048,34.048402830781,1
82.9182763534678,30.7026940783667,1
156.064270858058,37.8494269405615,1
158.829014151886,40.2969747035653,1
219.467486801503,42.8865082501957,1
123.227183420203,56.7916092071593,1
127.235936105007,32.7793721310383,1
139.181486216242,29.9697980036428,1
104.537826744426,29.8670715012536,1
128.215305361167,31.4265784058362,1
106.830009537926,18.3702528890746,1
136.892590540313,30.8795207724736,1
136.352676274097,29.6175127239284,1
111.878673995503,25.3620973725515,1
84.0177296750494,26.7948297581371,1
179.851744737788,33.3422203930818,1
197.93855695391,43.0177921303169,1
233.515405617194,45.6749746523501,1
149.233009320529,35.6898106730925,1
169.822427399861,40.9524873045145,1
137.389493229728,29.6682975247599,1
158.29253224167,29.5425417609359,1
139.1252024123,39.1595093971368,1
121.285552706811,41.7747626767432,1
100.697617314165,20.5394162458912,1
136.688121713891,28.8735251876921,1
103.60633605559,23.2360799105641,1
109.799938719341,29.129623633916,1
135.114136406997,24.7329288716975,1
93.5606918664363,20.8588218796906,1
104.339400458164,22.2613594246277,1
90.3007109375643,24.0621852822561,1
26.5656836106563,3.71012677625269,0
30.2391304660171,5.99391211696247,0
26.2387352615695,3.83389904961438,0
26.5157581236106,3.4490578149996,0
27.5416328182102,4.00333067487862,0
24.0945681604948,3.22060850927512,0
25.7525591070877,3.4087941214035,0
23.4017619136734,1.95882342203776,0
25.3016876205332,3.08846462456098,0
25.790386412706,1.98647481528481,0
24.0788461535473,3.50999300800506,0
24.255714708665,1.95230662255813,0
25.1836718927599,3.31745948099153,0
24.5801445546865,2.54299675807742,0
25.4974935296822,2.60859684003907,0
26.6279152878273,3.07952228651428,0
24.5096505150489,2.67374728225052,0
23.9328498349684,3.12836718182374,0
24.5006106985318,2.49242060396429,0
24.6907213056248,3.56941618108483,0
22.4402036108014,2.28250348746484,0
24.9202650302009,3.54071208335662,0
25.2628775750274,3.27600430281202,0
25.5196053072961,3.2091552807813,0
24.7750620227302,3.3622278430325,0
23.723082938033,2.95204703265852,0
25.2623792821665,3.66712663273236,0
25.4941451891506,2.6726902652733,0
26.6799841391375,4.52319614525062,0
24.7312716427458,2.96991513694037,0
25.8352255492922,4.60141965693913,0
24.9007788908861,2.82241325353977,0
24.35545197407,2.53520650771105,0
22.8124557878349,2.90738627174809,0
22.798593196832,2.17725461455613,0
24.1207390427184,2.70981279578373,0
24.3397215973375,2.1209257562468,0
24.9302911970456,3.05042528607804,0
24.8473730905156,2.18783192950979,0
25.4371053023984,4.18996816874557,0
24.7967250679774,2.59763808574282,0
24.0606303561465,4.29877385469064,0
25.1039574848218,2.75861827597323,0
23.7959239923085,3.22792774468,0
24.2276239644497,3.27764847167428,0
26.7163673999804,2.44787767462223,0
25.9199811659924,3.83589451670049,0
22.578162354769,2.2247232934061,0
24.2067748593033,3.02801542119622,0
24.5769467173309,3.14309823216291,0
23.930987936133,2.78747605368177,0
23.5567259719134,2.04599536519661,0
24.8662800118683,3.7463892768527,0
26.879592028812,3.33785887323033,0
24.6146822919558,3.26175582055891,0
24.073664393897,4.59027419536902,0
23.0725224390573,3.0925454297495,0
24.4968787156762,4.30607708086642,0
24.5484377579299,3.12585330067199,0
25.8618580163075,3.09100943989347,0
25.6459168652903,2.54527957616836,0
25.2009711096609,3.88175143077513,0
25.0251263437225,4.24149950883357,0
24.560142341748,2.40073723306969,0
26.4599462993757,3.87838013148945,0
25.2600326251327,2.72009914866577,0
26.7491107587547,4.58903464065009,0
24.1897243475896,3.07571335240957,0
24.608771783033,3.41823447954173,0
24.4884704291541,3.42985350168459,0
23.6316647297212,2.0226553689021,0
24.8289576576967,3.99213398422672,0
23.2621867770752,2.50481762451376,0
25.5640386111811,3.77748817331977,0
21.8540876747652,2.19733662095966,0
25.5227349778816,3.69114866768595,0
24.249481495434,2.83624390794896,0
22.814670492084,3.06015231594568,0
25.712098593345,2.76785278980799,0
23.5937926545719,3.08176872689256,0
26.5319973033625,3.82489635596967,0
24.0969485264276,2.26932290144687,0
25.4187573093307,4.28051766909932,0
24.2012500726218,2.20775980860263,0
25.7725216216035,3.75165692826621,0
25.2031316493052,3.17047656672188,0
23.4633302466129,3.60098520201583,0
25.7469378588501,3.65715114912794,0
25.7077528151321,2.75343787556346,0
26.7755089248946,3.33628329439009,0
23.8944903578408,2.2520012626462,0
25.1617408263214,4.31954698635499,0
24.3709783535295,1.91801784728458,0
25.163356555589,4.26108655247058,0
23.8548419225175,2.38658865781465,0
25.161303293806,3.74640156767275,0
26.2088753145993,4.34414512801089,0
24.3141273883418,2.44033999941762,0
26.3156802228593,3.35858183338685,0
139.931946950612,29.0872532273478,1
145.955078770051,30.8498189459979,1
142.82520915145,42.4267353768411,1
83.2246061791748,23.1948717586412,1
77.4632041785932,20.9981776340389,1
114.474639639787,26.0374479879176,1
94.4999301492624,32.3546742417383,1
145.680903062378,28.6206286010468,1
168.308443452922,37.8781332515569,1
117.094295881968,31.9581675219872,1
147.760615210302,38.9531082913677,1
125.64336935071,55.2583347810292,1
123.963987528998,30.2854323339166,1
161.645330363039,44.2887462748818,1
220.676454334293,41.5399845654595,1
149.46461940661,41.3652278593582,1
124.066805972345,35.452835925259,1
133.741151037258,27.8970539269402,1
157.431272034556,45.8549783720814,1
169.037240070655,42.0955755154746,1
228.767440529795,70.8377332183006,1
176.630066465894,44.7383411982105,1
154.007687515992,42.1139549519041,1
170.468670420191,37.1797715214923,1
141.357895436366,34.5817694444645,1
89.0780552680397,24.0741144431966,1
110.802896621841,27.9664018665106,1
121.138220362728,22.3134605886241,1
112.803366121799,34.7693805761482,1
94.8822230161075,22.9811701043361,1
86.7742421080498,33.7141682721908,1
122.184972257294,41.0468485047282,1
129.836966182731,25.529001499151,1
139.29505177565,54.6217388480085,1
193.9052647658,51.0046509670209,1
180.893909696068,41.5609448627987,1
137.106313095425,33.593040012897,1
177.388276856685,37.0326183272003,1
179.352001459402,52.845055132631,1
108.697066988899,45.0454299252037,1
139.136972348338,38.4376693600312,1
133.688848982832,48.27927499918,1
138.440834108777,40.1570260194344,1
111.200388411344,30.8498511185879,1
104.398050981024,32.5487690286584,1
151.571974250193,35.6281665480902,1
174.883169403334,53.5704490718943,1
211.054071372998,60.2908832089806,1
239.624827224137,60.5816550636335,1
197.401641112752,50.2889551813647,1
194.507100863915,52.3632729357832,1
117.798395717315,43.2995065851506,1
164.715187820706,76.7545678634693,1
134.848987195567,45.8833663257189,1
120.924498990436,47.930247329471,1
152.600434178457,30.2835499359789,1
168.078342818901,28.9883800888433,1
100.589572413288,25.2542658148121,1
90.1152853224173,24.9561988963251,1
126.840834418752,28.5052822129028,1
91.1096800168906,41.0135520825666,1
107.388571155973,29.8366174764155,1
155.616534167688,41.9762524538153,1
153.90703225091,38.4505256953135,1
162.374492791498,38.369612894665,1
148.733972710503,40.1188060875972,1
117.2577986594,33.4489804800745,1
118.647630785593,25.9005308851201,1
117.563900090755,30.7694530276353,1
142.14142865678,26.0089578825687,1
133.551887394224,40.1212436272287,1
103.022974425772,41.3387480642252,1
141.661386426589,65.8893686094796,1
29.3121347260114,5.11216139271311,0
31.9934390003421,11.0983711382936,0
29.5386957254371,7.16097106896727,0
21.5669932119241,2.33054148064307,0
23.6057840215914,2.85326939490134,0
23.4001568937069,2.99138128727735,0
22.5966078014361,3.62488595807327,0
23.4816922494465,4.08723612205928,0
23.7337901375834,4.69811579669102,0
22.7064855855368,2.69575228965722,0
22.8014713988124,2.59245279343404,0
20.1875286827906,2.03048537522289,0
21.3600282687146,2.46217995266455,0
21.6210363702625,3.22156642572629,0
45.7331207296996,21.8074061128228,0
42.6298601434103,16.7122393652219,0
25.1873106980066,10.1291637508763,0
19.8089930093568,2.91541588339945,0
23.08103735379,5.05432849911125,0
21.0251993913105,2.33301962879947,0
25.5850913674604,6.28007011149634,0
19.9220424384911,2.25781701274512,0
23.0727440701823,4.11999336401117,0
20.2345549422627,3.85831041208967,0
25.8109638700406,3.11306843317544,0
21.9257327485951,2.76496301172969,0
22.3615959136196,4.17220243596057,0
21.0052191234541,3.57997759078561,0
22.0762041863398,2.67120169067673,0
21.492233225068,3.16807282961825,0
22.0210096825985,2.73532211715641,0
23.1935361026274,5.95384519439624,0
21.447438051574,2.51675273515194,0
21.7513181109207,2.73062102612263,0
22.6048021485063,2.11730885343493,0
21.0195842914349,2.54196541809368,0
23.7803476635953,2.98478644208514,0
19.732395093369,2.46972571884068,0
20.3959973379935,3.33213058397076,0
20.6800327576324,2.79180421192689,0
23.1612762441653,4.16404104684345,0
23.9472844012385,3.88422310152823,0
21.1160406875622,3.00508525816872,0
19.9425997055266,2.73796683375023,0
20.4423959477277,2.42114020744332,0
21.3190138572899,2.85410618766982,0
19.7536931609178,2.43133578247231,0
22.1809171009228,3.76208709133686,0
22.7274296333109,3.75181322910814,0
23.0291783877004,3.07610129495779,0
21.6449157580691,2.4422895884047,0
21.774381720568,2.72872830551341,0
21.6847603953403,2.56590021834572,0
22.020763877916,2.33033067188834,0
24.3203807258694,3.87245374116178,0
20.7669229550259,2.02717140273962,0
21.6253963993313,4.05619659434697,0
21.6034957296575,2.35212161133968,0
22.8885834105765,2.57917241075069,0
21.6917950992963,2.36619041062499,0
23.1189669719206,3.59881702672322,0
21.8402635891929,4.0200937298238,0
20.3394037008416,1.98031595666485,0
22.1807829932005,2.95848715016394,0
20.1943804998882,2.4238956401169,0
20.9267091753461,2.51278493270713,0
20.0858059466841,2.63907081885925,0
20.2245222882385,1.36946823045717,0
20.9216993721235,2.02256647286257,0
20.00519759892,2.67729630239311,0
22.8206332439746,2.49391253383452,0
20.5989523095889,2.11591476381826,0
22.1550755097644,3.25244820113984,0
21.9602879806391,2.63207451982747,0
21.7335553312288,3.07271273618521,0
20.0153336974688,1.9455134368266,0
22.0235889058395,3.06007232431499,0
23.7298604040675,2.95221809365177,0
26.4715539596427,4.15837609468279,0
25.3396368957644,5.9265966252246,0
23.3227875502342,5.11303111037516,0
23.18072384338,5.16833040805291,0
24.7365203967632,2.77694699014571,0
30.5725208337169,13.7834086577107,0
113.822462919903,53.8309716323333,0
157.877669805062,46.8379517698598,1
179.46134470892,63.9699470918854,1
156.26332177618,52.5367407443927,1
193.550401223685,52.4154514294261,1
139.131651074251,41.6584834238347,1
126.846040074213,45.0074816105804,1
158.616248209118,41.6319063108756,1
145.392871143031,33.5566320515487,1
161.631324864625,44.6793261433622,1
78.8487394291538,48.8922903258121,1
108.553825388416,31.4588947055398,1
99.44810501335,20.946898006199,1
96.3115172618452,19.9995054007394,1
89.8942264079176,17.6263087022327,1
143.500507482621,19.6630431777404,1
115.023637162966,24.9386081908881,1
113.560989640434,27.638218805452,1
117.295841557519,29.3665935574603,1
170.174837433234,30.3176473563484,1
135.804313201134,43.6733763361681,1
141.003175767648,35.0899902745836,1
158.331139453425,60.3577748626313,1
146.874974121356,44.4563843426702,1
154.808740729147,39.9320844788132,1
157.91589508378,34.687477939574,1
186.479073284737,57.8670281567922,1
195.17245688968,69.696991120921,1
166.039796871099,64.8735539440494,1
141.711141203457,49.2389764329155,1
125.451638629984,51.5906061656687,1
113.710257913877,34.1774761237498,1
70.8977986270019,27.0049964526271,1
77.6257501331595,37.9179444106506,1
79.4514909949009,21.3731164747529,1
100.819521508289,25.2677018674043,1
104.825855851472,21.6207430130581,1
104.003192142748,17.173115319286,1
64.6655465474413,20.6946790334369,1
133.053804111336,27.8573679912898,1
102.33799748277,26.3584901549246,1
111.661912150528,32.8396849877595,1
114.165509942898,34.9885556621423,1
89.5154783919838,23.1467370870031,1
87.5280854459469,26.08674820798,1
60.5982505668409,19.8759027639965,1
105.920446150383,18.8883792236807,1
121.382460944144,29.8155964640741,1
117.736640564357,40.5202936355867,1
83.0755958541029,25.955219550899,1
139.160630886548,27.3401943681566,1
122.526977606819,55.1354061444687,1
81.1345424829941,28.9847878460992,1
92.6917450975177,33.9045696565097,1
116.860917673278,27.4734983013258,1
89.1555640510506,34.3930106237929,1
82.9217213848208,31.8920613990546,1
112.713132244476,27.9355059221673,1
93.0549865509788,38.4933463900709,1
112.037466363733,48.0733029359694,1
107.262628952036,37.6466795501032,1
79.3992548492217,25.1572083867178,1
92.9953107929036,32.4033682366809,1
110.406363008432,35.9766915569154,1
80.7155330841029,25.2208086572761,1
129.53038406463,44.2775628658609,1
100.010163085798,34.1992759983181,1
42.8673151620859,19.9118810053818,1
121.078513777495,27.6866077587035,1
114.559238424262,33.1620490594487,1
119.991221964562,34.5125075547362,1
179.756186309318,47.5511415460395,1
213.188890964522,61.5979309635659,1
254.769788903143,50.0862122818818,1
176.972367663908,66.2532660219939,1
104.086189676931,65.3223237868032,1
151.456452817152,53.6397361314522,1
114.033110091309,38.3177276827459,1
93.1563062740075,34.3067533286201,1
116.376437946457,36.950808608228,1
99.6096511345696,36.2729361007256,1
98.1794633011756,30.1061460225227,1
126.036649610581,43.5989875716062,1
96.5657971617363,23.9666126431694,1
91.5035749783785,36.6476704323216,1
163.36596367378,39.9944983187379,1
131.564635509574,50.7250008194941,1
137.343304072251,43.826065888681,1
165.530396456492,39.8310795893578,1
176.244603258706,62.8730016369592,1
104.099055482244,34.6343890353933,1
85.9125490528314,18.318323363199,1
82.71547979126,27.0371747002212,1
62.520076724355,32.7344492718213,1
121.756081021571,24.9974177437755,1
112.539343039581,26.9427840254691,1
47.0324601448251,20.0050180139858,1
84.1340039482422,46.1978270147555,1
20.5990903433817,3.0141643521819,0
15.5577461899309,3.36010859134713,0
18.4841190557128,3.80830516972499,0
16.2811772097288,3.75401092451714,0
17.9135977978359,3.88603899254675,0
15.1489788040494,1.8257347918454,0
15.462367500998,4.01840049500006,0
16.9324866984692,3.84432059992496,0
15.1609322193147,1.91825059776826,0
16.1377368069605,4.22621561705669,0
14.4745930226533,2.6300574037191,0
16.2243672688232,4.28452066037776,0
15.0980431887964,2.77366954020708,0
15.2404822703949,3.33899521354987,0
16.7241678835873,4.20396729061548,0
14.6894825898622,2.4623647837398,0
14.6019955499216,3.38160072892816,0
15.7002247448309,3.3171822306412,0
14.8110212243269,3.63469670477024,0
16.752950320761,2.33299241457326,0
14.2653425619997,2.72037232554547,0
15.6310734145444,2.63722572953915,0
18.9215653361129,4.36065086761252,0
17.5893226707487,3.93883752010196,0
32.6505421562918,7.40451291949057,0
24.5816195072345,3.13690918216052,0
17.3972711301204,4.32568690871775,0
17.7994623545067,3.54512740975357,0
17.6918223197995,3.92642141732585,0
16.4596053217915,4.37530498860384,0
16.2306960565597,2.93501365404956,0
17.790444339187,3.98726498175902,0
16.8329227806908,2.63675930374808,0
17.2178788361978,2.99126573441669,0
15.5262452896006,2.68094286832632,0
14.789043431977,2.50830432388007,0
16.3115611119886,2.31433342359536,0
16.4892974900842,2.43793738146094,0
