1,636230434057027275
1,636230434057192380
0,636230434057362719
0,636230434057527623
0,636230434057692920
0,636230434057862861
0,636230434058027983
0,636230434058198095
0,636230434058363401
0,636230434058528527
0,636230434058698652
0,636230434058863573
0,636230434059028694
0,636230434059198824
0,636230434059364006
0,636230434059534045
0,636230434059699163
0,636230434059864293
0,636230434060034418
0,636230434060199707
0,636230434060369644
0,636230434060534945
0,636230434060700058
0,636230434060870064
0,636230434061035121
0,636230434061200239
0,636230434061370565
0,636230434061535473
0,636230434061705594
0,636230434061870711
0,636230434062035846
0,636230434062205945
0,636230434062371247
0,636230434062536184
0,636230434062706301
0,636230434062871436
0,636230434063041561
0,636230434063206661
0,636230434063371962
0,636230434063541895
0,636230434063707222
0,636230434063872147
1,636230434064042255
1,636230434064207377
0,636230434064377489
0,636230434064542611
0,636230434064707733
0,636230434064877845
0,636230434065043151
0,636230434065208273
0,636230434065378214
0,636230434065543319
0,636230434065713439
0,636230434065878570
0,636230434066043679
0,636230434066213808
0,636230434066378930
0,636230434066544214
0,636230434066714168
0,636230434066879290
0,636230434067049419
0,636230434067214511
0,636230434067379808
0,636230434067549775
0,636230434067714880
0,636230434067880173
0,636230434068050118
0,636230434068215411
0,636230434068385344
0,636230434068550641
0,636230434068715596
0,636230434068885695
0,636230434069050817
0,636230434069216118
0,636230434069386068
0,636230434069551301
0,636230434069721294
0,636230434069886591
0,636230434070051541
0,636230434070221650
0,636230434070386763
0,636230434070551880
0,636230434070722194
0,636230434070887307
1,636230434071057244
1,636230434071222374
0,636230434071387667
0,636230434071557600
0,636230434071722726
0,636230434071887839
0,636230434072058139
0,636230434072223252
0,636230434072393194
0,636230434072558307
0,636230434072723613
0,636230434072893738
0,636230434073058847
0,636230434073223780
0,636230434073394085
0,636230434073559211
0,636230434073729144
0,636230434073894441
0,636230434074059391
0,636230434074229512
0,636230434074394617
0,636230434074564738
0,636230434074730039
0,636230434074894969
0,636230434075065090
0,636230434075230395
0,636230434075395324
0,636230434075565445
0,636230434075730580
0,636230434075900701
0,636230434076065805
0,636230434076231102
0,636230434076401057
0,636230434076566174
0,636230434076731291
0,636230434076901395
0,636230434077066517
0,636230434077236672
0,636230434077401751
0,636230434077566886
0,636230434077736990
1,636230434077902295
1,636230434078067413
0,636230434078237354
0,636230434078402480
0,636230434078572588
0,636230434078737906
0,636230434078903002
0,636230434079072940
0,636230434079238074
0,636230434079403187
0,636230434079573484
0,636230434079738417
0,636230434079908538
0,636230434080073651
0,636230434080238777
0,636230434080409022
0,636230434080574204
0,636230434080744132
0,636230434080909245
0,636230434081074367
0,636230434081244484
0,636230434081409601
0,636230434081574903
0,636230434081744857
0,636230434081909957
0,636230434082080082
0,636230434082245204
0,636230434082410330
0,636230434082580438
0,636230434082745739
0,636230434082910681
0,636230434083080794
0,636230434083245928
0,636230434083411037
0,636230434083581167
0,636230434083746460
0,636230434083916384
0,636230434084081531
0,636230434084246811
0,636230434084416748
0,636230434084581891
0,636230434084751982
0,636230434084917104
0,636230434085082401
1,636230434085252364
1,636230434085417456
0,636230434085582590
0,636230434085752878
0,636230434085917991
0,636230434086087932
0,636230434086253234
0,636230434086418180
0,636230434086588288
0,636230434086753431
0,636230434086918519
0,636230434087088849
0,636230434087253761
0,636230434087423878
0,636230434087589179
0,636230434087754301
0,636230434087924294
0,636230434088089368
0,636230434088259476
0,636230434088424774
0,636230434088589891
0,636230434088759837
0,636230434088924945
0,636230434089090067
0,636230434089260184
0,636230434089425318
0,636230434089590603
0,636230434089760561
0,636230434089925678
0,636230434090095778
0,636230434090261079
0,636230434090426205
0,636230434090596138
0,636230434090761264
0,636230434090926373
0,636230434091096674
0,636230434091261795
0,636230434091431737
0,636230434091597029
0,636230434091761963
0,636230434091932268
0,636230434092097389
0,636230434092267327
0,636230434092432624
0,636230434092597574
1,636230434092767682
1,636230434092932988
0,636230434093097917
0,636230434093268055
0,636230434093433173
0,636230434093598273
0,636230434093768578
0,636230434093933695
0,636230434094103628
0,636230434094268750
0,636230434094433884
0,636230434094604001
0,636230434094769285
0,636230434094939231
0,636230434095104528
0,636230434095269667
0,636230434095439578
0,636230434095604695
0,636230434095769817
0,636230434095939951
0,636230434096105073
0,636230434096275189
0,636230434096440294
0,636230434096605600
0,636230434096775528
0,636230434096940654
0,636230434097105776
0,636230434097275901
0,636230434097441023
0,636230434097611127
0,636230434097776244
0,636230434097941357
0,636230434098111478
0,636230434098276625
0,636230434098441734
0,636230434098611851
0,636230434098776973
0,636230434098947089
0,636230434099112194
0,636230434099277500
0,636230434099447428
0,636230434099612546
0,636230434099777881
1,636230434099947822
1,636230434100113094
0,636230434100283027
0,636230434100448144
0,636230434100613261
0,636230434100783382
0,636230434100948517
0,636230434101113613
0,636230434101283738
0,636230434101448860
0,636230434101618977
0,636230434101784094
0,636230434101949224
0,636230434102119328
0,636230434102284629
0,636230434102449751
0,636230434102619688
0,636230434102784985
0,636230434102954927
0,636230434103120048
0,636230434103285179
0,636230434103455278
0,636230434103620400
0,636230434103785530
0,636230434103955655
0,636230434104120756
0,636230434104290877
0,636230434104456011
0,636230434104621124
0,636230434104791297
0,636230434104956534
0,636230434105121651
0,636230434105291588
0,636230434105456740
0,636230434105626822
0,636230434105791953
0,636230434105957280
0,636230434106127178
0,636230434106292479
0,636230434106462421
0,636230434106627722
0,636230434106792835
0,636230434106962819
0,636230434107127907
0,636230434107293191
0,636230434107463132
1,636230434107628447
1,636230434107798384
0,636230434107963702
0,636230434108128606
0,636230434108298829
0,636230434108463857
0,636230434108628961
0,636230434108799100
0,636230434108964392
0,636230434109134334
0,636230434109299622
0,636230434109464740
0,636230434109634685
0,636230434109799798
0,636230434109964911
0,636230434110135032
0,636230434110300163
0,636230434110470271
0,636230434110635401
0,636230434110800523
0,636230434110970622
0,636230434111135924
0,636230434111300879
0,636230434111471000
0,636230434111636108
0,636230434111806229
0,636230434111971522
0,636230434112136670
0,636230434112306572
0,636230434112471694
0,636230434112637004
0,636230434112807112
0,636230434112972242
0,636230434113142171
0,636230434113307472
0,636230434113472590
0,636230434113642522
0,636230434113807678
0,636230434113972779
0,636230434114142882
0,636230434114308214
0,636230434114478121
0,636230434114643260
0,636230434114808373
0,636230434114978673
0,636230434115143598
0,636230434115308716
1,636230434115478832
1,636230434115643963
0,636230434115814067
0,636230434115979376
0,636230434116144323
0,636230434116314427
0,636230434116479544
0,636230434116649678
0,636230434116814808
0,636230434116979904
0,636230434117150021
0,636230434117315155
0,636230434117480435
0,636230434117650552
0,636230434117815494
0,636230434117980612
0,636230434118150758
0,636230434118315850
0,636230434118485971
0,636230434118651294
0,636230434118816231
0,636230434118986335
0,636230434119151448
0,636230434119316566
0,636230434119486691
0,636230434119651813
0,636230434119821917
0,636230434119987226
0,636230434120152173
0,636230434120322277
0,636230434120487411
0,636230434120657515
0,636230434120822645
0,636230434120987930
0,636230434121157871
0,636230434121323001
0,636230434121488290
0,636230434121658411
0,636230434121823528
0,636230434121993465
0,636230434122158583
0,636230434122323700
0,636230434122493825
0,636230434122659118
1,636230434122824257
1,636230434122994391
0,636230434123159311
0,636230434123329415
0,636230434123494558
0,636230434123659834
0,636230434123829767
0,636230434123995068
0,636230434124160001
0,636230434124330148
0,636230434124495445
0,636230434124665365
0,636230434124830495
0,636230434124995801
0,636230434125165802
0,636230434125330851
0,636230434125495956
0,636230434125666256
0,636230434125831194
0,636230434126001315
0,636230434126166629
0,636230434126331730
0,636230434126501675
0,636230434126666797
0,636230434126832090
0,636230434127002232
0,636230434127167358
0,636230434127337265
0,636230434127502395
0,636230434127667513
0,636230434127837792
0,636230434128002751
0,636230434128167860
0,636230434128337998
0,636230434128503090
0,636230434128673219
0,636230434128838516
0,636230434129003634
0,636230434129173776
0,636230434129338684
1,636230434129508809
1,636230434129673940
0,636230434129839040
0,636230434130009161
0,636230434130174462
0,636230434130339592
0,636230434130509521
0,636230434130674655
0,636230434130839760
0,636230434131010061
0,636230434131175187
0,636230434131345111
0,636230434131510416
0,636230434131675354
0,636230434131845659
0,636230434132010606
0,636230434132180709
0,636230434132345823
0,636230434132511128
0,636230434132681138
0,636230434132846183
0,636230434133011300
0,636230434133181434
0,636230434133346718
0,636230434133516655
0,636230434133681965
0,636230434133846894
0,636230434134017011
0,636230434134182133
0,636230434134347434
0,636230434134517384
0,636230434134682506
0,636230434134852622
0,636230434135017744
0,636230434135182840
0,636230434135352965
0,636230434135518271
0,636230434135683427
0,636230434135853321
0,636230434136018443
0,636230434136188559
1,636230434136353856
1,636230434136518799
0,636230434136688911
0,636230434136854221
0,636230434137019154
0,636230434137189288
0,636230434137354384
0,636230434137524505
0,636230434137689623
0,636230434137854924
0,636230434138024865
0,636230434138189995
0,636230434138355284
0,636230434138525405
0,636230434138690334
0,636230434138860472
0,636230434139025581
0,636230434139190703
0,636230434139360820
0,636230434139525945
0,636230434139691054
0,636230434139861171
0,636230434140026284
0,636230434140196405
0,636230434140361544
0,636230434140526661
0,636230434140696949
0,636230434140862075
0,636230434141027184
0,636230434141197125
0,636230434141362243
0,636230434141532359
0,636230434141697656
0,636230434141862782
0,636230434142032720
0,636230434142197833
0,636230434142367954
0,636230434142533071
0,636230434142698372
0,636230434142868318
1,636230434143033611
1,636230434143198741
0,636230434143368665
0,636230434143533800
0,636230434143703904
0,636230434143869034
0,636230434144034348
0,636230434144204255
0,636230434144369377
0,636230434144534674
0,636230434144704632
0,636230434144869917
0,636230434145039866
0,636230434145204984
0,636230434145370106
0,636230434145540209
0,636230434145705335
0,636230434145870444
0,636230434146040753
0,636230434146205683
0,636230434146375804
0,636230434146541105
0,636230434146706222
0,636230434146876155
0,636230434147041290
0,636230434147206407
0,636230434147376515
0,636230434147541633
0,636230434147711758
0,636230434147877055
0,636230434148042172
0,636230434148212105
0,636230434148377407
0,636230434148542357
0,636230434148712645
0,636230434148877604
0,636230434149047704
0,636230434149212825
0,636230434149377939
0,636230434149548055
1,636230434149713365
1,636230434149878311
0,636230434150048599
0,636230434150213554
0,636230434150383654
0,636230434150548989
0,636230434150713966
0,636230434150884005
0,636230434151049307
0,636230434151214244
0,636230434151384549
0,636230434151549483
0,636230434151719604
0,636230434151884725
0,636230434152050018
0,636230434152219955
0,636230434152385265
0,636230434152555198
0,636230434152720332
0,636230434152885612
0,636230434153055554
0,636230434153220684
0,636230434153385806
0,636230434153555914
0,636230434153721027
0,636230434153886328
0,636230434154056282
0,636230434154221567
0,636230434154391504
0,636230434154556621
0,636230434154721756
0,636230434154892078
0,636230434155058961
0,636230434155226076
0,636230434155393674
0,636230434155559997
0,636230434155730409
0,636230434155894658
0,636230434156061435
0,636230434156228849
0,636230434156395099
0,636230434156563754
0,636230434156729444
1,636230434156895336
1,636230434157063092
0,636230434157227726
0,636230434157397334
0,636230434157564384
0,636230434157732585
0,636230434157899199
0,636230434158065894
0,636230434158232338
0,636230434158399503
0,636230434158562820
0,636230434158733741
0,636230434158898713
0,636230434159067329
0,636230434159232754
0,636230434159401040
0,636230434159568831
0,636230434159735312
0,636230434159902974
0,636230434160069328
0,636230434160236908
0,636230434160400431
0,636230434160570543
0,636230434160735665
0,636230434160900778
0,636230434161070899
0,636230434161236204
0,636230434161403020
0,636230434161570626
0,636230434161738968
0,636230434161906792
0,636230434162073586
0,636230434162238793
0,636230434162404052
0,636230434162573835
0,636230434162739538
0,636230434162905776
0,636230434163071167
0,636230434163241464
0,636230434163406410
0,636230434163576698
0,636230434163741828
0,636230434163906950
0,636230434164077071
0,636230434164241991
0,636230434164412112
1,636230434164577255
1,636230434164742352
0,636230434164912485
0,636230434165077590
0,636230434165242908
0,636230434165413021
0,636230434165577946
0,636230434165743067
0,636230434165913188
0,636230434166078314
0,636230434166248602
0,636230434166413720
0,636230434166578845
0,636230434166748778
0,636230434166913900
0,636230434167084017
0,636230434167249151
0,636230434167414273
0,636230434167584561
0,636230434167749503
0,636230434167919607
0,636230434168084908
0,636230434168249846
0,636230434168419962
0,636230434168585080
0,636230434168750206
0,636230434168920323
0,636230434169085457
0,636230434169250737
0,636230434169420674
0,636230434169585809
0,636230434169755912
0,636230434169921043
0,636230434170086335
0,636230434170256290
0,636230434170421403
0,636230434170586691
0,636230434170756641
0,636230434170921763
0,636230434171091867
0,636230434171257189
0,636230434171422303
0,636230434171592406
0,636230434171757520
0,636230434171922646
1,636230434172092574
1,636230434172257696
0,636230434172427936
0,636230434172592930
0,636230434172758235
0,636230434172928185
0,636230434173093478
0,636230434173258424
0,636230434173428524
0,636230434173593847
0,636230434173763784
0,636230434173928880
0,636230434174094185
0,636230434174264302
0,636230434174429424
0,636230434174599357
0,636230434174764658
0,636230434174929596
0,636230434175099734
0,636230434175264877
0,636230434175429947
0,636230434175600278
0,636230434175765408
0,636230434175935307
0,636230434176100424
0,636230434176265730
0,636230434176435859
0,636230434176600968
0,636230434176765923
0,636230434176936202
0,636230434177101320
0,636230434177271261
0,636230434177436387
0,636230434177601513
0,636230434177771822
0,636230434177936948
0,636230434178102035
0,636230434178271990
0,636230434178437150
0,636230434178607224
0,636230434178772328
0,636230434178937630
1,636230434179107751
1,636230434179272680
0,636230434179437827
0,636230434179607944
0,636230434179773057
0,636230434179943161
0,636230434180108291
0,636230434180273392
0,636230434180443705
0,636230434180608818
0,636230434180773769
0,636230434180943877
0,636230434181109170
0,636230434181279107
0,636230434181444408
0,636230434181609350
0,636230434181779659
0,636230434181944785
0,636230434182109702
0,636230434182279818
0,636230434182444936
0,636230434182615061
0,636230434182780174
0,636230434182945300
0,636230434183115417
0,636230434183280718
0,636230434183445831
0,636230434183615785
0,636230434183781078
0,636230434183951015
0,636230434184116128
0,636230434184281263
0,636230434184451551
0,636230434184616480
0,636230434184781786
0,636230434184951907
0,636230434185116836
0,636230434185286961
0,636230434185452096
0,636230434185617209
0,636230434185787518
0,636230434185952430
0,636230434186122555
0,636230434186287886
0,636230434186452970
0,636230434186622907
1,636230434186788212
1,636230434186953325
0,636230434187123451
0,636230434187288564
0,636230434187453681
0,636230434187623819
0,636230434187788744
0,636230434187958865
0,636230434188124158
0,636230434188289280
0,636230434188459431
0,636230434188624518
0,636230434188794455
0,636230434188959752
0,636230434189124870
0,636230434189294824
0,636230434189460112
0,636230434189625059
0,636230434189795163
0,636230434189960280
0,636230434190130405
0,636230434190295702
0,636230434190460640
0,636230434190630975
0,636230434190796062
0,636230434190961175
0,636230434191131296
0,636230434191296239
0,636230434191466360
0,636230434191631661
0,636230434191796770
0,636230434191966711
0,636230434192131833
0,636230434192296942
0,636230434192467080
0,636230434192632184
0,636230434192802310
0,636230434192967418
0,636230434193132553
0,636230434193302853
0,636230434193467791
0,636230434193632909
0,636230434193803201
0,636230434193968147
0,636230434194138260
0,636230434194303373
0,636230434194468507
1,636230434194638628
1,636230434194803728
0,636230434194969030
0,636230434195139146
0,636230434195304264
0,636230434195474227
0,636230434195639507
0,636230434195804628
0,636230434195974741
0,636230434196139696
0,636230434196309795
0,636230434196474917
0,636230434196640051
0,636230434196810219
0,636230434196975457
0,636230434197140574
0,636230434197310507
0,636230434197475808
0,636230434197645749
0,636230434197810867
0,636230434197976164
0,636230434198146208
0,636230434198311415
0,636230434198476336
0,636230434198646649
0,636230434198811596
0,636230434198981699
0,636230434199146834
0,636230434199312114
0,636230434199482226
0,636230434199647186
0,636230434199812470
0,636230434199982407
0,636230434200147529
0,636230434200317645
0,636230434200482775
0,636230434200648064
0,636230434200818005
0,636230434200983123
0,636230434201148244
0,636230434201318370
0,636230434201483483
0,636230434201653599
0,636230434201818730
0,636230434201983830
1,636230434202154148
1,636230434202319261
0,636230434202484199
0,636230434202654328
0,636230434202819424
0,636230434202989545
0,636230434203154851
0,636230434203319797
0,636230434203489910
0,636230434203655036
0,636230434203820324
0,636230434203990454
0,636230434204155391
0,636230434204325508
0,636230434204490621
0,636230434204655918
0,636230434204825868
0,636230434204991178
0,636230434205156103
0,636230434205326224
0,636230434205491508
0,636230434205661450
0,636230434205826563
0,636230434205991791
0,636230434206161989
0,636230434206327102
0,636230434206492062
0,636230434206662170
0,636230434206827291
0,636230434206997417
0,636230434207162722
0,636230434207327823
0,636230434207497935
0,636230434207663057
0,636230434207832989
0,636230434207998128
0,636230434208163241
0,636230434208333414
0,636230434208498484
0,636230434208663597
0,636230434208833714
0,636230434208999032
0,636230434209168944
0,636230434209334245
1,636230434209499362
1,636230434209669406
0,636230434209834601
0,636230434209999530
0,636230434210169835
0,636230434210334957
0,636230434210504894
0,636230434210670028
0,636230434210835146
0,636230434211005404
0,636230434211170363
0,636230434211335677
0,636230434211505785
0,636230434211670902
0,636230434211840844
0,636230434212006149
0,636230434212171258
0,636230434212341200
0,636230434212506313
0,636230434212671618
0,636230434212841735
0,636230434213006686
0,636230434213176807
0,636230434213341907
0,636230434213507212
0,636230434213677338
0,636230434213842267
0,636230434214007573
0,636230434214177518
0,636230434214342636
0,636230434214512744
0,636230434214678045
0,636230434214843167
0,636230434215013095
0,636230434215178213
0,636230434215343510
0,636230434215513460
0,636230434215678752
0,636230434215848690
0,636230434216013991
0,636230434216179108
0,636230434216349233
0,636230434216514167
0,636230434216679297
0,636230434216849405
1,636230434217014531
1,636230434217184648
0,636230434217349757
0,636230434217515067
0,636230434217685077
0,636230434217850113
0,636230434218015427
0,636230434218185373
0,636230434218350490
0,636230434218520594
0,636230434218685728
0,636230434218850841
0,636230434219020950
0,636230434219186084
0,636230434219351368
0,636230434219521301
0,636230434219686624
0,636230434219856557
0,636230434220021841
0,636230434220186774
0,636230434220356895
0,636230434220522026
0,636230434220687139
0,636230434220857439
0,636230434221022377
0,636230434221192498
0,636230434221357607
0,636230434221522741
0,636230434221692884
0,636230434221858181
0,636230434222028084
0,636230434222193201
0,636230434222358336
0,636230434222528628
0,636230434222693745
0,636230434222858863
0,636230434223028800
0,636230434223193943
0,636230434223364034
0,636230434223529339
0,636230434223694290
0,636230434223864582
0,636230434224029524
0,636230434224199628
0,636230434224364767
1,636230434224530051
1,636230434224699984
0,636230434224865118
0,636230434225030407
0,636230434225200344
0,636230434225365474
0,636230434225530788
0,636230434225700712
0,636230434225866001
0,636230434226035938
0,636230434226201235
0,636230434226366357
0,636230434226536324
0,636230434226701595
0,636230434226866713
0,636230434227036645
0,636230434227201767
0,636230434227371884
0,636230434227537018
0,636230434227702324
0,636230434227872342
0,636230434228037366
0,636230434228202671
0,636230434228372784
0,636230434228537717
0,636230434228707838
0,636230434228872964
0,636230434229038069
0,636230434229208190
0,636230434229373324
0,636230434229538429
0,636230434229708550
0,636230434229873868
0,636230434230043792
0,636230434230208901
0,636230434230374019
0,636230434230544332
0,636230434230709274
0,636230434230879382
0,636230434231044679
0,636230434231209797
0,636230434231379742
0,636230434231544856
1,636230434231710153
1,636230434231880107
0,636230434232045399
0,636230434232210333
0,636230434232380634
0,636230434232545563
0,636230434232715688
0,636230434232880989
0,636230434233045931
0,636230434233216057
0,636230434233381166
0,636230434233551287
0,636230434233716400
0,636230434233881722
0,636230434234051651
0,636230434234216756
0,636230434234381916
0,636230434234552186
0,636230434234717107
0,636230434234887232
0,636230434235052529
0,636230434235217480
0,636230434235387588
0,636230434235552710
0,636230434235717819
0,636230434235888132
0,636230434236053074
0,636230434236223178
0,636230434236388317
0,636230434236553430
0,636230434236723534
0,636230434236888668
0,636230434237053948
0,636230434237224074
0,636230434237389028
0,636230434237559132
0,636230434237724245
0,636230434237889380
0,636230434238059501
0,636230434238224683
0,636230434238389907
0,636230434238559857
0,636230434238725145
0,636230434238895082
0,636230434239060217
1,636230434239225313
1,636230434239395451
0,636230434239560568
0,636230434239725861
0,636230434239895807
0,636230434240061091
0,636230434240231037
0,636230434240396163
0,636230434240561451
0,636230434240731401
0,636230434240896506
0,636230434241061640
0,636230434241231753
0,636230434241397041
0,636230434241566978
0,636230434241732095
0,636230434241897397
0,636230434242067351
0,636230434242232468
0,636230434242402577
0,636230434242567912
0,636230434242732995
0,636230434242903009
0,636230434243068234
0,636230434243233355
0,636230434243403301
0,636230434243568401
0,636230434243738535
0,636230434243903657
0,636230434244068770
0,636230434244238882
0,636230434244404081
0,636230434244569113
0,636230434244739260
0,636230434244904351
0,636230434245074477
0,636230434245239778
0,636230434245404891
0,636230434245574974
0,636230434245740134
0,636230434245905247
0,636230434246075188
0,636230434246240310
0,636230434246410427
0,636230434246575565
0,636230434246740661
1,636230434246910778
1,636230434247076079
0,636230434247241034
0,636230434247411322
0,636230434247576251
0,636230434247746377
0,636230434247911674
0,636230434248076616
0,636230434248246737
0,636230434248411846
0,636230434248577249
0,636230434248747268
0,636230434248912218
0,636230434249082327
0,636230434249247624
0,636230434249412566
0,636230434249582682
0,636230434249747796
0,636230434249913097
0,636230434250083038
0,636230434250248173
0,636230434250418281
0,636230434250583574
0,636230434250748721
0,636230434250918632
0,636230434251083763
0,636230434251248867
0,636230434251418992
0,636230434251584106
0,636230434251754227
0,636230434251919361
0,636230434252084556
0,636230434252254766
0,636230434252419708
0,636230434252589821
0,636230434252755139
0,636230434252920240
0,636230434253090172
0,636230434253255290
0,636230434253420429
0,636230434253590588
0,636230434253755834
0,636230434253920763
1,636230434254090901
1,636230434254256001
0,636230434254426131
0,636230434254591248
0,636230434254756562
0,636230434254926495
0,636230434255091596
0,636230434255261721
0,636230434255427018
0,636230434255591951
0,636230434255762072
0,636230434255927382
0,636230434256092491
0,636230434256262612
0,636230434256427729
0,636230434256597675
0,636230434256762784
0,636230434256928085
0,636230434257098232
0,636230434257263298
0,636230434257428484
0,636230434257598400
0,636230434257763500
0,636230434257933638
0,636230434258098926
0,636230434258263856
0,636230434258434165
0,636230434258599094
0,636230434258764229
0,636230434258934538
0,636230434259099664
0,636230434259269571
0,636230434259434701
0,636230434259599819
0,636230434259769927
0,636230434259935245
0,636230434260100345
0,636230434260270462
0,636230434260435396
0,636230434260605534
0,636230434260770822
0,636230434260935769
1,636230434261105877
1,636230434261271195
0,636230434261436321
0,636230434261606412
0,636230434261771530
0,636230434261941467
0,636230434262106601
0,636230434262271701
0,636230434262441857
0,636230434262606940
0,636230434262772066
0,636230434262942208
0,636230434263107296
0,636230434263277421
0,636230434263442726
0,636230434263607835
0,636230434263777973
0,636230434263943087
0,636230434264108200
0,636230434264278338
0,636230434264443246
0,636230434264613375
0,636230434264778488
0,636230434264943623
0,636230434265113911
0,636230434265279049
0,636230434265444163
0,636230434265614087
0,636230434265779221
0,636230434265949321
0,636230434266114618
0,636230434266279551
0,636230434266449690
0,636230434266614798
0,636230434266780091
0,636230434266950050
0,636230434267115163
0,636230434267285271
0,636230434267450384
0,636230434267615501
0,636230434267785815
1,636230434267950761
1,636230434268120865
0,636230434268285983
0,636230434268451280
0,636230434268621221
0,636230434268786351
0,636230434268951464
0,636230434269121585
0,636230434269286882
0,636230434269456815
0,636230434269621928
0,636230434269787251
0,636230434269957192
0,636230434270122468
0,636230434270287594
0,636230434270457522
0,636230434270622644
0,636230434270792765
0,636230434270957883
0,636230434271123017
0,636230434271293134
0,636230434271458251
0,636230434271623540
0,636230434271793682
0,636230434271958590
0,636230434272128715
0,636230434272294012
0,636230434272459134
0,636230434272629255
0,636230434272794210
0,636230434272959490
0,636230434273129611
0,636230434273294557
0,636230434273464665
0,636230434273630005
0,636230434273794896
0,636230434273965094
0,636230434274130151
0,636230434274295252
0,636230434274465556
1,636230434274630678
1,636230434274800615
0,636230434274965728
0,636230434275131030
0,636230434275301159
0,636230434275466268
0,636230434275631210
0,636230434275801515
0,636230434275966444
0,636230434276136578
0,636230434276301875
0,636230434276466984
0,636230434276637088
0,636230434276802038
0,636230434276967340
0,636230434277137290
0,636230434277302574
0,636230434277472515
0,636230434277637821
0,636230434277802750
0,636230434277972875
0,636230434278138006
0,636230434278303106
0,636230434278473428
0,636230434278638524
0,636230434278808461
0,636230434278973766
0,636230434279138717
0,636230434279309013
0,636230434279473938
0,636230434279639073
0,636230434279809173
0,636230434279974290
0,636230434280144419
0,636230434280309545
0,636230434280474834
0,636230434280644767
0,636230434280809884
0,636230434280980005
0,636230434281145306
1,636230434281310244
1,636230434281480365
0,636230434281645508
0,636230434281810617
0,636230434281980747
0,636230434282145847
0,636230434282315959
0,636230434282481282
0,636230434282646378
0,636230434282816315
0,636230434282981433
0,636230434283146730
0,636230434283316855
0,636230434283481788
0,636230434283651905
0,636230434283817027
0,636230434283982324
0,636230434284152453
0,636230434284317584
0,636230434284482714
0,636230434284652801
0,636230434284817743
0,636230434284987859
0,636230434285152977
0,636230434285318287
0,636230434285488399
0,636230434285653512
0,636230434285818450
0,636230434285988751
0,636230434286153889
0,636230434286323809
0,636230434286489128
0,636230434286654040
0,636230434286824178
0,636230434286989283
0,636230434287159404
0,636230434287324521
0,636230434287489651
0,636230434287659764
0,636230434287824894
0,636230434287990182
0,636230434288160132
1,636230434288325417
1,636230434288495358
0,636230434288660484
0,636230434288825593
0,636230434288995727
0,636230434289160848
0,636230434289325957
0,636230434289496245
0,636230434289661371
0,636230434289831304
0,636230434289996601
0,636230434290161534
0,636230434290331664
0,636230434290496790
0,636230434290661924
0,636230434290832015
0,636230434290997317
0,636230434291167254
0,636230434291332367
0,636230434291497488
0,636230434291667605
0,636230434291832919
0,636230434291998028
0,636230434292168153
0,636230434292333083
0,636230434292503204
0,636230434292668334
0,636230434292833639
0,636230434293003709
0,636230434293168822
0,636230434293333978
0,636230434293504103
0,636230434293669212
0,636230434293839154
0,636230434294004455
0,636230434294169393
0,636230434294339505
0,636230434294504807
0,636230434294669932
0,636230434294839870
1,636230434295005167
1,636230434295175099
0,636230434295340234
0,636230434295505518
0,636230434295675656
0,636230434295840594
0,636230434296005716
0,636230434296175824
0,636230434296340937
0,636230434296511067
0,636230434296676376
0,636230434296841477
0,636230434297011593
0,636230434297176527
0,636230434297341824
0,636230434297511770
0,636230434297677071
0,636230434297847017
0,636230434298012138
0,636230434298177418
0,636230434298347381
0,636230434298512657
0,636230434298677594
0,636230434298847741
0,636230434299012828
0,636230434299182949
0,636230434299348255
0,636230434299513206
0,636230434299683374
0,636230434299848423
0,636230434300013549
0,636230434300183665
0,636230434300348791
0,636230434300518917
0,636230434300684025
0,636230434300849318
0,636230434301019354
0,636230434301184390
0,636230434301349674
0,636230434301519611
1,636230434301684912
1,636230434301854862
0,636230434302019971
0,636230434302185272
0,636230434302355393
0,636230434302520336
0,636230434302685628
0,636230434302855745
0,636230434303020678
0,636230434303190812
0,636230434303355934
0,636230434303521051
0,636230434303691309
0,636230434303856294
0,636230434304021403
0,636230434304191528
0,636230434304356812
0,636230434304526946
0,636230434304691875
0,636230434304856984
0,636230434305027289
0,636230434305192240
0,636230434305362361
0,636230434305527649
0,636230434305692767
0,636230434305872711
0,636230434306028001
0,636230434306192960
0,636230434306363055
0,636230434306528181
0,636230434306698294
0,636230434306863595
0,636230434307028529
0,636230434307198842
0,636230434307363959
0,636230434307529068
0,636230434307699018
0,636230434307864311
0,636230434308034248
0,636230434308199378
1,636230434308364500
1,636230434308534788
0,636230434308699725
0,636230434308869838
0,636230434309034977
0,636230434309200257
0,636230434309370198
0,636230434309535332
0,636230434309700446
0,636230434309870622
0,636230434310035667
0,636230434310200801
0,636230434310370927
0,636230434310536036
0,636230434310706148
0,636230434310871445
0,636230434311036400
0,636230434311206602
0,636230434311371801
0,636230434311536880
0,636230434311707043
0,636230434311871977
0,636230434312042098
0,636230434312207211
0,636230434312372512
0,636230434312542638
0,636230434312707755
0,636230434312872693
0,636230434313042805
0,636230434313207940
0,636230434313378048
0,636230434313543178
0,636230434313708471
0,636230434313878404
0,636230434314043701
0,636230434314208656
0,636230434314378944
0,636230434314543903
0,636230434314713998
0,636230434314879295
0,636230434315044246
0,636230434315214358
0,636230434315379484
1,636230434315549588
1,636230434315714705
0,636230434315880011
0,636230434316050021
0,636230434316215061
0,636230434316380367
0,636230434316550317
0,636230434316715438
0,636230434316885542
0,636230434317050655
0,636230434317215773
0,636230434317385988
0,636230434317551216
0,636230434317716137
0,636230434317886433
0,636230434318051384
0,636230434318221492
0,636230434318386798
0,636230434318551723
0,636230434318721865
0,636230434318886978
0,636230434319052096
0,636230434319222200
0,636230434319387514
0,636230434319557438
0,636230434319722765
0,636230434319887857
0,636230434320057862
0,636230434320222924
0,636230434320388221
0,636230434320558346
0,636230434320723464
0,636230434320893388
0,636230434321058689
0,636230434321223644
0,636230434321393932
0,636230434321558865
0,636230434321723991
0,636230434321894100
0,636230434322059696
0,636230434322229629
0,636230434322394930
0,636230434322560048
1,636230434322730177
1,636230434322895102
0,636230434323060403
0,636230434323230529
0,636230434323395466
0,636230434323565592
0,636230434323730880
0,636230434323896002
0,636230434324065935
0,636230434324231048
0,636230434324396178
0,636230434324566479
0,636230434324731408
0,636230434324901546
0,636230434325066830
0,636230434325231948
0,636230434325401902
0,636230434325567011
0,636230434325732124
0,636230434325902433
0,636230434326067542
0,636230434326237479
0,636230434326402613
0,636230434326567726
0,636230434326738027
0,636230434326903140
0,636230434327068074
0,636230434327238379
0,636230434327403496
0,636230434327573442
0,636230434327738563
0,636230434327903672
0,636230434328073815
0,636230434328238906
0,636230434328404225
0,636230434328574175
0,636230434328739279
0,636230434328909383
0,636230434329074680
0,636230434329239798
0,636230434329409931
0,636230434329575049
1,636230434329739982
1,636230434329910095
0,636230434330075435
0,636230434330245329
0,636230434330410634
0,636230434330575748
0,636230434330745873
0,636230434330910802
0,636230434331080923
0,636230434331246224
0,636230434331411342
0,636230434331581279
0,636230434331746589
0,636230434331911522
0,636230434332081635
0,636230434332246940
0,636230434332412062
0,636230434332582179
0,636230434332747121
0,636230434332917237
0,636230434333082368
0,636230434333247656
0,636230434333417593
0,636230434333582719
0,636230434333752827
0,636230434333917953
0,636230434334083084
0,636230434334253256
0,636230434334418305
0,636230434334583598
0,636230434334753719
0,636230434334918656
0,636230434335088786
0,636230434335253890
0,636230434335419192
0,636230434335589150
0,636230434335754434
0,636230434335919368
0,636230434336089493
0,636230434336254829
1,636230434336424727
1,636230434336589858
0,636230434336754958
0,636230434336925276
0,636230434337090380
0,636230434337255318
0,636230434337425619
0,636230434337590569
0,636230434337760677
0,636230434337925812
0,636230434338090912
0,636230434338261217
0,636230434338426356
0,636230434338591268
0,636230434338761569
0,636230434338926695
0,636230434339096623
0,636230434339261741
0,636230434339427042
0,636230434339596983
0,636230434339762105
0,636230434339932217
0,636230434340097343
0,636230434340262469
0,636230434340432573
0,636230434340597909
0,636230434340762992
0,636230434340933121
0,636230434341098234
0,636230434341268172
0,636230434341433477
0,636230434341598586
0,636230434341768540
0,636230434341933829
0,636230434342098766
0,636230434342268909
0,636230434342434180
0,636230434342604122
0,636230434342769256
0,636230434342934540
0,636230434343104619
0,636230434343269774
0,636230434343434905
0,636230434343605017
1,636230434343770130
1,636230434343940072
0,636230434344105185
0,636230434344270311
0,636230434344440479
0,636230434344605549
0,636230434344770662
0,636230434344940783
0,636230434345106080
0,636230434345271031
0,636230434345441327
0,636230434345606449
0,636230434345776373
0,636230434345941679
0,636230434346106792
0,636230434346276733
0,636230434346441859
0,636230434346611967
0,636230434346777089
0,636230434346942219
0,636230434347112477
0,636230434347277453
0,636230434347442575
0,636230434347612683
0,636230434347777796
0,636230434347947934
0,636230434348113039
0,636230434348278174
0,636230434348448282
0,636230434348613399
0,636230434348778512
0,636230434348948633
0,636230434349113751
0,636230434349283867
0,636230434349449177
0,636230434349614136
0,636230434349784420
0,636230434349949537
0,636230434350114475
0,636230434350284583
0,636230434350449773
0,636230434350619826
0,636230434350785123
0,636230434350950262
0,636230434351120195
0,636230434351285487
1,636230434351450425
1,636230434351620721
0,636230434351785843
0,636230434351955767
0,636230434352120889
0,636230434352286186
0,636230434352456136
0,636230434352621433
0,636230434352786362
0,636230434352956479
0,636230434353121601
0,636230434353291730
0,636230434353456835
0,636230434353622149
0,636230434353792073
0,636230434353957379
0,636230434354127316
0,636230434354292613
0,636230434354457730
0,636230434354627676
0,636230434354792986
0,636230434354957979
0,636230434355128027
0,636230434355293350
0,636230434355463266
0,636230434355628400
0,636230434355793514
0,636230434355963626
0,636230434356128735
0,636230434356293869
0,636230434356463973
0,636230434356629275
0,636230434356799280
0,636230434356964342
0,636230434357129630
0,636230434357299567
0,636230434357464702
0,636230434357629986
0,636230434357800111
0,636230434357965045
0,636230434358130539
0,636230434358300822
1,636230434358465969
1,636230434358635881
0,636230434358800994
0,636230434358966120
0,636230434359136237
0,636230434359301551
0,636230434359471471
0,636230434359636593
0,636230434359801894
0,636230434359971912
0,636230434360136948
0,636230434360302070
0,636230434360472191
0,636230434360637304
0,636230434360802614
0,636230434360972735
0,636230434361137664
0,636230434361307781
0,636230434361472915
0,636230434361638208
0,636230434361808321
0,636230434361973263
0,636230434362143371
0,636230434362308497
0,636230434362473794
0,636230434362643825
0,636230434362809037
0,636230434362973970
0,636230434363144087
0,636230434363309221
0,636230434363479329
0,636230434363644460
0,636230434363809577
0,636230434363979792
0,636230434364144987
0,636230434364310104
0,636230434364480229
0,636230434364645338
0,636230434364815279
0,636230434364980585
0,636230434365145694
0,636230434365315635
0,636230434365480770
0,636230434365646084
0,636230434365815987
0,636230434365981288
0,636230434366151229
0,636230434366316347
0,636230434366481644
0,636230434366651598
0,636230434366816698
0,636230434366981816
0,636230434367152116
0,636230434367317071
0,636230434367487175
0,636230434367652485
0,636230434367817414
0,636230434367987770
0,636230434368152653
0,636230434368317762
0,636230434368487887
0,636230434368653192
0,636230434368823129
0,636230434368988431
0,636230434369153377
0,636230434369323669
0,636230434369488787
0,636230434369653724
0,636230434369823858
0,636230434369988971
0,636230434370159075
0,636230434370324193
0,636230434370489310
0,636230434370659619
0,636230434370824561
0,636230434370994669
0,636230434371159971
0,636230434371324904
1,636230434371495029
1,636230434371660151
0,636230434371825260
0,636230434371995565
0,636230434372160717
0,636230434372330619
0,636230434372495921
0,636230434372661038
0,636230434372830975
0,636230434372996277
0,636230434373161394
0,636230434373331515
0,636230434373496632
0,636230434373666569
0,636230434373831687
0,636230434373996988
0,636230434374166925
0,636230434374332265
0,636230434374497344
0,636230434374667465
0,636230434374832582
0,636230434375002519
0,636230434375167654
0,636230434375332938
0,636230434375503068
0,636230434375668172
0,636230434375833303
0,636230434376003231
0,636230434376168370
0,636230434376338469
0,636230434376503608
0,636230434376668888
0,636230434376839022
0,636230434377004131
0,636230434377169253
0,636230434377339369
0,636230434377504316
0,636230434377674419
0,636230434377839721
0,636230434378004654
0,636230434378174771
0,636230434378340085
0,636230434378505215
0,636230434378675135
0,636230434378840432
0,636230434379010369
0,636230434379175504
0,636230434379340617
0,636230434379510738
0,636230434379676035
0,636230434379840960
0,636230434380011269
0,636230434380176391
0,636230434380346319
0,636230434380511437
0,636230434380676772
0,636230434380846889
0,636230434381011977
0,636230434381176927
0,636230434381347215
0,636230434381512161
0,636230434381682269
0,636230434381847579
0,636230434382012509
0,636230434382182818
0,636230434382347743
0,636230434382513044
0,636230434382683165
0,636230434382848304
0,636230434383018219
0,636230434383183350
0,636230434383348642
0,636230434383518575
0,636230434383683693
0,636230434383848998
0,636230434384018948
0,636230434384184061
0,636230434384354169
0,636230434384519283
0,636230434384684417
0,636230434384854538
0,636230434385019848
0,636230434385189764
0,636230434385355065
1,636230434385519999
1,636230434385690119
0,636230434385855425
0,636230434386020354
0,636230434386190663
0,636230434386355601
0,636230434386525714
0,636230434386690891
0,636230434386855970
0,636230434387026279
0,636230434387191396
0,636230434387356497
0,636230434387526618
0,636230434387691731
0,636230434387861677
0,636230434388026798
0,636230434388192091
0,636230434388362037
0,636230434388527141
0,636230434388692314
0,636230434388862392
0,636230434389027493
0,636230434389197614
0,636230434389362915
0,636230434389528032
0,636230434389698158
0,636230434389863271
0,636230434390028209
0,636230434390198513
0,636230434390363631
0,636230434390533572
0,636230434390698711
0,636230434390863816
0,636230434391033937
0,636230434391199221
0,636230434391364338
0,636230434391534275
0,636230434391699581
0,636230434391869514
0,636230434392034819
0,636230434392199932
1,636230434392370062
1,636230434392535008
0,636230434392700301
0,636230434392870405
0,636230434393035343
0,636230434393205464
0,636230434393370598
0,636230434393535878
0,636230434393706008
0,636230434393870937
0,636230434394036247
0,636230434394206188
0,636230434394371477
0,636230434394541418
0,636230434394706715
0,636230434394871837
0,636230434395041787
0,636230434395207071
0,636230434395372017
0,636230434395542309
0,636230434395707439
0,636230434395877368
0,636230434396042674
0,636230434396207787
0,636230434396377732
0,636230434396543025
0,636230434396712958
0,636230434396878071
0,636230434397043206
0,636230434397213318
0,636230434397378444
0,636230434397543728
0,636230434397713853
0,636230434397878975
0,636230434398048908
0,636230434398214021
0,636230434398379327
0,636230434398549264
0,636230434398714569
0,636230434398879524
0,636230434399049645
0,636230434399214741
1,636230434399384858
1,636230434399549997
0,636230434399715114
0,636230434399885209
0,636230434400050348
0,636230434400215453
0,636230434400385762
0,636230434400550687
0,636230434400720812
0,636230434400886118
0,636230434401051047
0,636230434401221172
0,636230434401386281
0,636230434401551583
0,636230434401721708
0,636230434401886650
0,636230434402056758
0,636230434402221875
0,636230434402387177
0,636230434402557272
0,636230434402722428
0,636230434402892352
0,636230434403057478
0,636230434403222591
0,636230434403392708
0,636230434403558014
0,636230434403723131
0,636230434403893179
0,636230434404058374
0,636230434404223491
0,636230434404393437
0,636230434404558558
0,636230434404728658
0,636230434404893964
0,636230434405058889
0,636230434405229211
0,636230434405394136
0,636230434405564256
0,636230434405729374
0,636230434405894675
0,636230434406064612
0,636230434406229738
0,636230434406394843
1,636230434406564977
1,636230434406730098
0,636230434406900202
0,636230434407065332
0,636230434407230621
0,636230434407400562
0,636230434407565684
0,636230434407730806
0,636230434407900914
0,636230434408066048
0,636230434408236152
0,636230434408401270
0,636230434408566408
0,636230434408736521
0,636230434408901809
0,636230434409066747
0,636230434409237048
0,636230434409401986
0,636230434409567120
0,636230434409737224
0,636230434409902337
0,636230434410072479
0,636230434410237588
0,636230434410402697
0,636230434410572998
0,636230434410737944
0,636230434410908057
0,636230434411073354
0,636230434411238480
0,636230434411408408
0,636230434411573530
0,636230434411738647
0,636230434411908982
0,636230434412074065
0,636230434412244002
0,636230434412409299
0,636230434412574250
0,636230434412744354
0,636230434412909488
0,636230434413074619
0,636230434413244731
0,636230434413409844
1,636230434413579952
1,636230434413745074
0,636230434413910208
0,636230434414080325
0,636230434414245443
0,636230434414410551
0,636230434414580681
0,636230434414745781
0,636230434414915911
0,636230434415081033
0,636230434415246137
0,636230434415416258
0,636230434415581375
0,636230434415746493
0,636230434415916793
0,636230434416081941
0,636230434416251861
0,636230434416416974
0,636230434416582087
0,636230434416752208
0,636230434416917488
0,636230434417082439
0,636230434417252581
0,636230434417417681
0,636230434417587802
0,636230434417752920
0,636230434417918041
0,636230434418088184
0,636230434418253276
0,636230434418418397
0,636230434418588728
0,636230434418753644
0,636230434418923791
0,636230434419088870
0,636230434419253983
0,636230434419424296
0,636230434419589405
0,636230434419759346
0,636230434419924468
0,636230434420089586
0,636230434420259805
0,636230434420425038
0,636230434420589941
1,636230434420760075
1,636230434420925188
0,636230434421095297
0,636230434421260602
0,636230434421425531
0,636230434421595785
0,636230434421760825
0,636230434421925917
0,636230434422096021
0,636230434422261339
0,636230434422431247
0,636230434422596569
0,636230434422761498
0,636230434422931778
0,636230434423096737
0,636230434423262021
0,636230434423432138
0,636230434423597255
0,636230434423767197
0,636230434423932327
0,636230434424097624
0,636230434424267548
0,636230434424432670
0,636230434424597783
0,636230434424767921
0,636230434424933026
0,636230434425103147
0,636230434425268456
0,636230434425433381
0,636230434425603502
0,636230434425768633
0,636230434425933921
0,636230434426104042
0,636230434426269164
0,636230434426439285
0,636230434426604227
0,636230434426769336
0,636230434426939469
0,636230434427104749
0,636230434427269833
0,636230434427439821
0,636230434427605105
0,636230434427775042
0,636230434427940164
1,636230434428120288
1,636230434428275402
0,636230434428440520
0,636230434428605637
0,636230434428775775
0,636230434428940880
0,636230434429110997
0,636230434429276131
0,636230434429441248
0,636230434429611536
0,636230434429776649
0,636230434429941591
0,636230434430111892
0,636230434430276843
0,636230434430446951
0,636230434430612068
0,636230434430777181
0,636230434430947520
0,636230434431112433
0,636230434431277721
0,636230434431447675
0,636230434431612955
0,636230434431782901
0,636230434431948194
0,636230434432113153
0,636230434432283248
0,636230434432448378
0,636230434432613680
0,636230434432783822
0,636230434432948944
0,636230434433119039
0,636230434433283977
0,636230434433449261
0,636230434433619198
0,636230434433784504
0,636230434433949625
0,636230434434119742
0,636230434434284706
0,636230434434454801
0,636230434434619914
0,636230434434785044
0,636230434434955246
0,636230434435120283
0,636230434435290391
0,636230434435455508
0,636230434435620626
1,636230434435790751
1,636230434435956044
0,636230434436120981
0,636230434436291115
0,636230434436456408
0,636230434436626341
0,636230434436791471
0,636230434436956764
0,636230434437126906
0,636230434437292028
0,636230434437456927
0,636230434437627236
0,636230434437792349
0,636230434437962291
0,636230434438127425
0,636230434438292530
0,636230434438462835
0,636230434438627948
0,636230434438792903
0,636230434438963028
0,636230434439128133
0,636230434439298241
0,636230434439463538
0,636230434439628493
0,636230434439798614
0,636230434439963714
0,636230434440129011
0,636230434440299132
0,636230434440464254
0,636230434440634191
0,636230434440799308
0,636230434440964443
0,636230434441134735
0,636230434441299664
0,636230434441469785
0,636230434441634915
0,636230434441800041
0,636230434441970141
0,636230434442135254
0,636230434442300371
1,636230434442470681
1,636230434442635807
0,636230434442800937
0,636230434442970852
0,636230434443135983
0,636230434443306108
0,636230434443471204
0,636230434443636343
0,636230434443806639
0,636230434443971752
0,636230434444141685
0,636230434444306982
0,636230434444472108
0,636230434444642037
0,636230434444807342
0,636230434444972280
0,636230434445142418
0,636230434445307514
0,636230434445477635
0,636230434445642953
0,636230434445807866
0,636230434445978111
0,636230434446143288
0,636230434446308410
0,636230434446478539
0,636230434446643644
0,636230434446813585
0,636230434446978707
0,636230434447143828
0,636230434447314069
0,636230434447479071
0,636230434447644390
0,636230434447814297
0,636230434447979427
0,636230434448149535
0,636230434448314657
0,636230434448479954
0,636230434448650079
0,636230434448815008
0,636230434448980314
0,636230434449150251
0,636230434449315377
1,636230434449485485
1,636230434449650808
0,636230434449815737
0,636230434449985841
0,636230434450150971
0,636230434450316260
0,636230434450486376
0,636230434450651498
0,636230434450821435
0,636230434450986570
0,636230434451151858
0,636230434451321795
0,636230434451486904
0,636230434451652214
0,636230434451822142
0,636230434451987264
0,636230434452157389
0,636230434452322716
0,636230434452487633
0,636230434452657929
0,636230434452822854
0,636230434452992979
0,636230434453158281
0,636230434453323214
0,636230434453493339
0,636230434453658465
0,636230434453823583
0,636230434453993879
0,636230434454158821
0,636230434454328929
0,636230434454494235
0,636230434454659352
0,636230434454829332
0,636230434454994586
0,636230434455159537
0,636230434455329825
0,636230434455494775
0,636230434455664879
0,636230434455830010
0,636230434456010125
0,636230434456165312
0,636230434456330541
1,636230434456495483
1,636230434456665591
0,636230434456830892
0,636230434457000829
0,636230434457165947
0,636230434457331060
0,636230434457501207
0,636230434457666303
0,636230434457831446
0,636230434458001725
0,636230434458166658
0,636230434458336779
0,636230434458502081
0,636230434458667198
0,636230434458837152
0,636230434459002248
0,636230434459167554
0,636230434459337504
0,636230434459502608
0,636230434459672734
0,636230434459837851
0,636230434460003148
0,636230434460173098
0,636230434460338215
0,636230434460503333
0,636230434460673629
0,636230434460838571
0,636230434461008679
0,636230434461173981
0,636230434461338914
0,636230434461509039
0,636230434461674349
0,636230434461839274
0,636230434462009391
0,636230434462174692
0,636230434462344629
0,636230434462509956
0,636230434462675078
0,636230434462845173
0,636230434463010286
0,636230434463175404
0,636230434463345521
1,636230434463510642
1,636230434463680579
0,636230434463845876
0,636230434464010831
0,636230434464181128
0,636230434464346048
0,636230434464511174
0,636230434464681308
0,636230434464846592
0,636230434465016529
0,636230434465181643
0,636230434465346781
0,636230434465516894
0,636230434465682186
0,636230434465847304
0,636230434466017241
0,636230434466182363
0,636230434466352479
0,636230434466517597
0,636230434466682924
0,636230434466853032
0,636230434467017965
0,636230434467183087
0,636230434467353371
0,636230434467518313
0,636230434467688532
0,636230434467853564
0,636230434468018669
0,636230434468188789
0,636230434468353915
0,636230434468524024
0,636230434468689158
0,636230434468854258
0,636230434469024375
0,636230434469189501
0,636230434469354614
0,636230434469524731
0,636230434469689861
0,636230434469854970
0,636230434470025095
0,636230434470190204
1,636230434470360347
1,636230434470525631
0,636230434470690569
0,636230434470860689
0,636230434471025803
0,636230434471195919
0,636230434471361225
0,636230434471526355
0,636230434471696292
0,636230434471861581
0,636230434472026698
0,636230434472196635
0,636230434472361937
0,636230434472531869
0,636230434472696991
0,636230434472862288
0,636230434473032443
0,636230434473197360
0,636230434473362469
0,636230434473532769
0,636230434473697724
0,636230434473867824
0,636230434474032945
0,636230434474198242
0,636230434474368372
0,636230434474533485
0,636230434474698410
0,636230434474868535
0,636230434475033841
0,636230434475203774
0,636230434475368904
0,636230434475534021
0,636230434475704318
0,636230434475869431
0,636230434476034360
0,636230434476204673
0,636230434476369787
0,636230434476539728
0,636230434476705029
0,636230434476869971
0,636230434477040285
1,636230434477205193
1,636230434477370502
0,636230434477540448
0,636230434477705574
0,636230434477875682
0,636230434478040808
0,636230434478206097
0,636230434478376222
0,636230434478541326
0,636230434478706269
0,636230434478876565
0,636230434479041503
0,636230434479211624
0,636230434479376946
0,636230434479542059
0,636230434479711979
0,636230434479877281
0,636230434480047218
0,636230434480212519
0,636230434480377654
0,636230434480547616
0,636230434480712695
0,636230434480877804
0,636230434481047934
0,636230434481213060
0,636230434481383168
0,636230434481548298
0,636230434481713587
0,636230434481883579
0,636230434482048671
0,636230434482213759
0,636230434482383897
0,636230434482549010
0,636230434482719114
0,636230434482884252
0,636230434483049545
0,636230434483219474
0,636230434483384775
0,636230434483549888
0,636230434483720018
1,636230434483884947
1,636230434484055064
0,636230434484220190
0,636230434484385487
0,636230434484555437
0,636230434484720721
0,636230434484885659
0,636230434485055775
0,636230434485220897
0,636230434485391022
0,636230434485556135
0,636230434485721266
0,636230434485891374
0,636230434486056709
0,636230434486221609
0,636230434486391913
0,636230434486556864
0,636230434486726972
0,636230434486892102
0,636230434487057387
0,636230434487227324
0,636230434487392454
0,636230434487557742
0,636230434487727885
0,636230434487892818
0,636230434488062918
0,636230434488228035
0,636230434488398186
0,636230434488563462
0,636230434488728575
0,636230434488893692
0,636230434489063809
0,636230434489228935
0,636230434489398868
0,636230434489564028
0,636230434489729107
0,636230434489899450
0,636230434490064525
0,636230434490229642
0,636230434490399763
0,636230434490564881
1,636230434490734818
1,636230434490900124
0,636230434491065237
0,636230434491235174
0,636230434491400304
0,636230434491570416
0,636230434491735530
0,636230434491900664
0,636230434492070781
0,636230434492236091
0,636230434492401191
0,636230434492571308
0,636230434492736425
0,636230434492906362
0,636230434493071663
0,636230434493236597
0,636230434493406718
0,636230434493572024
0,636230434493736957
0,636230434493907078
0,636230434494072208
0,636230434494242312
0,636230434494407430
0,636230434494572560
0,636230434494742681
0,636230434494907802
0,636230434495073087
0,636230434495243024
0,636230434495408154
0,636230434495578266
0,636230434495743568
0,636230434495908514
0,636230434496078635
0,636230434496243748
0,636230434496409045
0,636230434496578974
0,636230434496744271
1,636230434496914216
1,636230434497079347
0,636230434497244460
0,636230434497414760
0,636230434497579681
0,636230434497744807
0,636230434497914928
0,636230434498080225
0,636230434498250162
0,636230434498415280
0,636230434498580393
0,636230434498750535
0,636230434498915635
0,636230434499080766
0,636230434499251058
0,636230434499416008
0,636230434499586112
0,636230434499751418
0,636230434499916360
0,636230434500086656
0,636230434500251581
0,636230434500416720
0,636230434500587021
0,636230434500752129
0,636230434500922062
0,636230434501087364
0,636230434501252310
0,636230434501422414
0,636230434501587719
0,636230434501752841
0,636230434501922770
0,636230434502087921
0,636230434502258016
0,636230434502423322
0,636230434502588260
0,636230434502758385
0,636230434502923674
0,636230434503093606
0,636230434503258720
0,636230434503424025
1,636230434503594095
1,636230434503759259
0,636230434503924394
0,636230434504094335
0,636230434504259440
0,636230434504429556
0,636230434504594879
0,636230434504759971
0,636230434504929929
0,636230434505095047
0,636230434505260331
0,636230434505430268
0,636230434505595381
0,636230434505765511
0,636230434505930620
0,636230434506095754
0,636230434506266050
0,636230434506430984
0,636230434506596097
0,636230434506766398
0,636230434506931549
0,636230434507101469
0,636230434507266762
0,636230434507431884
0,636230434507601996
0,636230434507766930
0,636230434507932043
0,636230434508102356
0,636230434508267285
0,636230434508437402
0,636230434508602524
0,636230434508767654
0,636230434508937775
0,636230434509102893
0,636230434509267993
0,636230434509438118
0,636230434509603248
0,636230434509773356
0,636230434509938470
0,636230434510103677
0,636230434510273896
0,636230434510439014
1,636230434510603964
1,636230434510774261
0,636230434510939181
0,636230434511109311
0,636230434511274428
0,636230434511439546
0,636230434511609731
0,636230434511774964
0,636230434511940081
0,636230434512110039
0,636230434512275319
0,636230434512445256
0,636230434512610387
0,636230434512775671
0,636230434512945617
0,636230434513110914
0,636230434513280846
0,636230434513445989
0,636230434513611265
0,636230434513781211
0,636230434513946320
0,636230434514111629
0,636230434514281750
0,636230434514446680
0,636230434514611793
0,636230434514781922
0,636230434514947224
0,636230434515117161
0,636230434515282278
0,636230434515447404
0,636230434515617521
0,636230434515782634
0,636230434515947935
0,636230434516117868
0,636230434516283003
0,636230434516453102
0,636230434516618228
0,636230434516783363
0,636230434516953650
0,636230434517118610
0,636230434517288714
0,636230434517453822
0,636230434517618936
0,636230434517789061
1,636230434517954178
1,636230434518119304
0,636230434518289425
0,636230434518454530
0,636230434518624668
0,636230434518789781
0,636230434518955078
0,636230434519125195
0,636230434519290329
0,636230434519455425
0,636230434519625555
0,636230434519790475
0,636230434519960614
0,636230434520125718
0,636230434520290848
0,636230434520461149
0,636230434520626074
0,636230434520791204
0,636230434520961496
0,636230434521126443
0,636230434521296555
0,636230434521461852
0,636230434521626969
0,636230434521797099
0,636230434521962208
0,636230434522127158
0,636230434522297284
0,636230434522462568
0,636230434522632505
0,636230434522797631
0,636230434522962766
0,636230434523132861
0,636230434523297991
0,636230434523463108
0,636230434523633396
0,636230434523798514
0,636230434523968446
0,636230434524133748
0,636230434524298869
0,636230434524468802
1,636230434524634112
1,636230434524804045
0,636230434524969167
0,636230434525134301
0,636230434525304401
0,636230434525469736
0,636230434525634648
0,636230434525804752
0,636230434525970058
0,636230434526139991
0,636230434526305292
0,636230434526470414
0,636230434526640372
0,636230434526805652
0,636230434526970769
0,636230434527140711
0,636230434527305828
0,636230434527470971
0,636230434527641280
0,636230434527806389
0,636230434527976348
0,636230434528141418
0,636230434528306548
0,636230434528476870
0,636230434528641979
0,636230434528806891
0,636230434528977025
0,636230434529142134
0,636230434529312255
0,636230434529477556
0,636230434529642670
0,636230434529812808
0,636230434529977724
0,636230434530147845
0,636230434530313151
0,636230434530478093
0,636230434530648355
0,636230434530813322
0,636230434530978615
0,636230434531148745
0,636230434531313704
0,636230434531483795
1,636230434531648925
1,636230434531814026
0,636230434531984352
0,636230434532149272
0,636230434532314390
0,636230434532484596
0,636230434532649808
0,636230434532819741
0,636230434532984880
0,636230434533150164
0,636230434533320118
0,636230434533485235
0,636230434533650357
0,636230434533820457
0,636230434533985578
0,636230434534155699
0,636230434534320996
0,636230434534486118
0,636230434534656068
0,636230434534821173
0,636230434534991289
0,636230434535156407
0,636230434535321716
0,636230434535491645
0,636230434535656758
0,636230434535821880
0,636230434535992185
0,636230434536157302
0,636230434536327239
0,636230434536492357
0,636230434536657474
0,636230434536827604
0,636230434536992896
0,636230434537158018
0,636230434537328139
0,636230434537493085
0,636230434537663189
0,636230434537828324
0,636230434537993608
0,636230434538163631
0,636230434538328846
0,636230434538493959
0,636230434538664089
1,636230434538829202
1,636230434538999139
0,636230434539164436
0,636230434539329370
0,636230434539499636
0,636230434539664621
0,636230434539829747
0,636230434540000035
0,636230434540164964
0,636230434540335089
0,636230434540500391
0,636230434540665508
0,636230434540835543
0,636230434541000742
0,636230434541165859
0,636230434541335814
0,636230434541501102
0,636230434541671039
0,636230434541836341
0,636230434542001291
0,636230434542171583
0,636230434542336696
0,636230434542501647
0,636230434542671935
0,636230434542836864
0,636230434543007002
0,636230434543172291
0,636230434543337412
0,636230434543507345
0,636230434543672646
0,636230434543837584
0,636230434544007705
0,636230434544173002
0,636230434544342939
0,636230434544508052
0,636230434544673187
0,636230434544843312
0,636230434545008541
0,636230434545173534
0,636230434545343843
0,636230434545508952
1,636230434545678894
1,636230434545844195
0,636230434546009210
0,636230434546179245
0,636230434546344546
0,636230434546509493
0,636230434546679601
0,636230434546844740
0,636230434547014844
0,636230434547179970
0,636230434547345087
0,636230434547515379
0,636230434547680313
0,636230434547850433
0,636230434548015551
0,636230434548180668
0,636230434548350789
0,636230434548515911
0,636230434548681204
0,636230434548851175
0,636230434549016258
0,636230434549181568
0,636230434549351685
0,636230434549516623
0,636230434549686735
0,636230434549852041
0,636230434550016970
0,636230434550187112
0,636230434550352396
0,636230434550522334
0,636230434550687549
0,636230434550852585
0,636230434551022813
0,636230434551187824
0,636230434551353070
0,636230434551523041
0,636230434551688180
0,636230434551858279
1,636230434552023581
1,636230434552188707
0,636230434552358639
0,636230434552523787
0,636230434552688874
0,636230434552859179
0,636230434553024121
0,636230434553194234
0,636230434553359535
0,636230434553524481
0,636230434553694594
0,636230434553859891
0,636230434554029823
0,636230434554195133
0,636230434554360251
0,636230434554530184
0,636230434554695301
0,636230434554860607
0,636230434555030556
0,636230434555195841
0,636230434555360770
0,636230434555530921
0,636230434555696025
0,636230434555866134
0,636230434556031247
0,636230434556196364
0,636230434556366673
0,636230434556531795
0,636230434556696724
0,636230434556867025
0,636230434557031963
0,636230434557202096
0,636230434557367393
0,636230434557532511
0,636230434557702628
0,636230434557867741
0,636230434558032696
0,636230434558202799
0,636230434558368092
1,636230434558538042
1,636230434558703151
0,636230434558868285
0,636230434559038578
0,636230434559203699
0,636230434559368812
0,636230434559538741
0,636230434559704598
0,636230434559869899
0,636230434560039832
0,636230434560204975
0,636230434560375075
0,636230434560540205
0,636230434560705318
0,636230434560875435
0,636230434561040732
0,636230434561205661
0,636230434561375992
0,636230434561541109
0,636230434561711029
0,636230434561876322
0,636230434562041277
0,636230434562211402
0,636230434562376686
0,636230434562541620
0,636230434562711737
0,636230434562876863
0,636230434563046975
0,636230434563212281
0,636230434563377398
0,636230434563547519
0,636230434563712452
0,636230434563882569
0,636230434564047870
0,636230434564212984
0,636230434564382925
0,636230434564548222
1,636230434564713164
1,636230434564883281
0,636230434565048424
0,636230434565213533
0,636230434565383637
0,636230434565548754
0,636230434565718995
0,636230434565884181
0,636230434566049289
0,636230434566219231
0,636230434566384528
0,636230434566554473
0,636230434566719775
0,636230434566884717
0,636230434567054838
0,636230434567219942
0,636230434567390068
0,636230434567555181
0,636230434567720486
0,636230434567890436
0,636230434568055716
0,636230434568220838
0,636230434568390775
0,636230434568555914
0,636230434568721023
0,636230434568891310
0,636230434569056252
0,636230434569226373
0,636230434569391508
0,636230434569561642
0,636230434569726755
0,636230434569891860
0,636230434570057148
0,636230434570227260
0,636230434570392198
0,636230434570562336
0,636230434570727621
0,636230434570892567
0,636230434571062863
0,636230434571227814
1,636230434571392948
1,636230434571563039
0,636230434571728165
0,636230434571898299
0,636230434572063404
0,636230434572228517
0,636230434572398638
0,636230434572563926
0,636230434572729039
0,636230434572899165
0,636230434573064286
0,636230434573234232
0,636230434573399341
0,636230434573564561
0,636230434573734592
0,636230434573899902
0,636230434574069813
0,636230434574234927
0,636230434574400044
0,636230434574570174
0,636230434574735479
0,636230434574900417
0,636230434575070709
0,636230434575235642
0,636230434575400944
0,636230434575570881
0,636230434575736015
0,636230434575906158
0,636230434576071254
0,636230434576236568
0,636230434576406667
0,636230434576571605
0,636230434576741713
0,636230434576907023
0,636230434577072132
0,636230434577242074
0,636230434577407375
1,636230434577572308
1,636230434577742434
0,636230434577907547
0,636230434578077668
0,636230434578242811
0,636230434578408104
0,636230434578578135
0,636230434578743325
0,636230434578908459
0,636230434579078563
0,636230434579243672
0,636230434579413618
0,636230434579578910
0,636230434579743861
0,636230434579914115
0,636230434580079296
0,636230434580244409
0,636230434580414329
0,636230434580579656
0,636230434580749568
0,636230434580914694
0,636230434581079811
0,636230434581249919
0,636230434581415041
0,636230434581580334
0,636230434581750292
0,636230434581915397
0,636230434582085513
0,636230434582250836
0,636230434582415748
0,636230434582585886
0,636230434582751171
0,636230434582916104
0,636230434583086409
0,636230434583251347
0,636230434583421468
0,636230434583586761
1,636230434583751788
1,636230434583921836
0,636230434584086932
0,636230434584252067
0,636230434584422380
0,636230434584587293
0,636230434584757409
0,636230434584922531
0,636230434585087648
0,636230434585257949
0,636230434585423071
0,636230434585588188
0,636230434585758121
0,636230434585923247
0,636230434586093368
0,636230434586258494
0,636230434586423620
0,636230434586593929
0,636230434586758850
0,636230434586928958
0,636230434587094092
0,636230434587259193
0,636230434587429361
0,636230434587594457
0,636230434587759732
0,636230434587929849
0,636230434588094800
0,636230434588264908
0,636230434588430021
0,636230434588595356
0,636230434588765281
0,636230434588930381
0,636230434589095520
0,636230434589265803
0,636230434589430737
0,636230434589600875
0,636230434589766159
1,636230434589931272
1,636230434590101393
0,636230434590266339
0,636230434590431448
0,636230434590601582
0,636230434590766896
0,636230434590936808
0,636230434591102109
0,636230434591267043
0,636230434591437365
0,636230434591602465
0,636230434591767411
0,636230434591937703
0,636230434592102821
0,636230434592272779
0,636230434592437875
0,636230434592603001
0,636230434592773332
0,636230434592938227
0,636230434593103532
0,636230434593273486
0,636230434593438582
0,636230434593608708
0,636230434593773821
0,636230434593939122
0,636230434594109247
0,636230434594274185
0,636230434594439294
0,636230434594609432
0,636230434594774541
0,636230434594944671
0,636230434595109955
0,636230434595275076
0,636230434595445009
0,636230434595610311
0,636230434595775432
0,636230434595945365
0,636230434596110483
1,636230434596280608
1,636230434596445751
0,636230434596611026
0,636230434596781023
0,636230434596946081
0,636230434597111382
0,636230434597281512
0,636230434597446454
0,636230434597616562
0,636230434597781855
0,636230434597946810
0,636230434598116926
0,636230434598282040
0,636230434598447332
0,636230434598617269
0,636230434598782404
0,636230434598952512
0,636230434599117638
0,636230434599282760
0,636230434599453047
0,636230434599617981
0,636230434599788102
0,636230434599953232
0,636230434600118341
0,636230434600288458
0,636230434600453592
0,636230434600618688
0,636230434600788809
0,636230434600954115
0,636230434601124048
0,636230434601289169
0,636230434601454471
0,636230434601624596
0,636230434601789525
0,636230434601954831
0,636230434602124781
0,636230434602289881
1,636230434602460006
1,636230434602625124
0,636230434602790241
0,636230434602960555
0,636230434603125471
0,636230434603290593
0,636230434603460735
0,636230434603625848
0,636230434603795956
0,636230434603961258
0,636230434604126208
0,636230434604296496
0,636230434604461425
0,636230434604626731
0,636230434604796668
0,636230434604961969
0,636230434605131915
0,636230434605297019
0,636230434605462321
0,636230434605632271
0,636230434605797555
0,636230434605967496
0,636230434606272713
0,636230434606297923
0,636230434606467865
0,636230434606632974
0,636230434606798104
0,636230434606968221
0,636230434607133330
0,636230434607298447
0,636230434607468624
0,636230434607633698
0,636230434607803802
0,636230434607969108
0,636230434608134050
1,636230434608304162
1,636230434608469275
0,636230434608634581
0,636230434608804582
0,636230434608969640
0,636230434609139752
0,636230434609305058
0,636230434609470166
0,636230434609640125
0,636230434609805413
0,636230434609975346
0,636230434610140481
0,636230434610305765
0,636230434610475702
0,636230434610640837
0,636230434610805958
0,636230434610976250
0,636230434611141359
0,636230434611306314
0,636230434611476414
0,636230434611641527
0,636230434611811656
0,636230434611976787
0,636230434612142079
0,636230434612312025
0,636230434612477309
0,636230434612647246
0,636230434612812548
0,636230434612977507
0,636230434613147675
0,636230434613312719
0,636230434613478025
0,636230434613647954
0,636230434613813075
0,636230434613983196
0,636230434614148318
0,636230434614313452
0,636230434614483569
1,636230434614648858
1,636230434614813971
0,636230434614984092
0,636230434615149034
0,636230434615319146
0,636230434615484448
0,636230434615649586
0,636230434615819498
0,636230434615984799
0,636230434616149925
0,636230434616319858
0,636230434616484992
0,636230434616655101
0,636230434616820214
0,636230434616985331
0,636230434617155645
0,636230434617320574
0,636230434617485708
0,636230434617655808
0,636230434617821105
0,636230434617991046
0,636230434618156356
0,636230434618321285
0,636230434618491603
0,636230434618656703
0,636230434618821641
0,636230434618991938
0,636230434619156888
0,636230434619326996
0,636230434619492118
0,636230434619657240
0,636230434619827540
0,636230434619992470
0,636230434620157805
0,636230434620327917
0,636230434620493009
0,636230434620662946
0,636230434620828068
0,636230434620993198
0,636230434621163486
0,636230434621328428
0,636230434621498541
0,636230434621663684
0,636230434621828959
0,636230434621999093
1,636230434622164198
1,636230434622329238
0,636230434622499436
0,636230434622664387
0,636230434622834491
0,636230434622999796
0,636230434623164914
0,636230434623334846
0,636230434623500148
0,636230434623665184
0,636230434623835382
0,636230434624000503
0,636230434624170441
0,636230434624335768
0,636230434624500697
0,636230434624670792
0,636230434624835927
0,636230434625001219
0,636230434625171165
0,636230434625336453
0,636230434625506395
0,636230434625671692
0,636230434625836805
0,636230434626006746
0,636230434626172043
0,636230434626336998
0,636230434626507106
0,636230434626672224
0,636230434626842341
0,636230434627007514
0,636230434627172768
0,636230434627342752
0,636230434627507998
0,636230434627672935
0,636230434627843236
0,636230434628008358
0,636230434628178291
0,636230434628343408
0,636230434628508731
0,636230434628678873
0,636230434628843969
0,636230434629008885
0,636230434629179190
0,636230434629344132
1,636230434629514241
1,636230434629679375
0,636230434629844655
0,636230434630014618
0,636230434630179735
0,636230434630349843
0,636230434630514952
0,636230434630680159
0,636230434630850195
0,636230434631015308
0,636230434631180614
0,636230434631350735
0,636230434631515668
0,636230434631680961
0,636230434631851095
0,636230434632016032
0,636230434632186153
0,636230434632351258
0,636230434632516375
0,636230434632686509
0,636230434632851614
0,636230434633016736
0,636230434633187032
0,636230434633352154
0,636230434633522099
0,636230434633687396
0,636230434633852509
0,636230434634022464
0,636230434634187581
0,636230434634357689
0,636230434634522819
0,636230434634688125
0,636230434634858130
0,636230434635023171
0,636230434635188459
0,636230434635358585
0,636230434635523531
0,636230434635693643
0,636230434635858765
0,636230434636024058
0,636230434636193991
1,636230434636359117
1,636230434636524243
0,636230434636694359
0,636230434636859481
0,636230434637029585
0,636230434637194882
0,636230434637359871
0,636230434637529958
0,636230434637695088
0,636230434637860175
0,636230434638030480
0,636230434638195598
0,636230434638365539
0,636230434638530836
0,636230434638695787
0,636230434638865891
0,636230434639031218
0,636230434639196125
0,636230434639366430
0,636230434639531548
0,636230434639701485
0,636230434639866782
0,636230434640031904
0,636230434640202037
0,636230434640366962
0,636230434640532088
0,636230434640702214
0,636230434640867493
0,636230434641037439
0,636230434641202740
0,636230434641367858
0,636230434641537979
0,636230434641702925
0,636230434641868209
0,636230434642038146
0,636230434642203448
0,636230434642373389
1,636230434642538515
1,636230434642703637
0,636230434642873925
0,636230434643039063
0,636230434643203988
0,636230434643374096
0,636230434643539402
0,636230434643709331
0,636230434643874465
0,636230434644039749
0,636230434644209883
0,636230434644374988
0,636230434644540118
0,636230434644710072
0,636230434644875172
0,636230434645045285
0,636230434645210625
0,636230434645375533
