79,636230434057027275
79,636230434057192380
79,636230434057362719
79,636230434057527623
79,636230434057692920
79,636230434057862861
79,636230434058027983
79,636230434058198095
79,636230434058363401
79,636230434058528527
79,636230434058698652
79,636230434058863573
79,636230434059028694
79,636230434059198824
79,636230434059364006
79,636230434059534045
79,636230434059699163
79,636230434059864293
79,636230434060034418
79,636230434060199707
79,636230434060369644
79,636230434060534945
79,636230434060700058
79,636230434060870064
79,636230434061035121
79,636230434061200239
79,636230434061370565
79,636230434061535473
79,636230434061705594
79,636230434061870711
79,636230434062035846
79,636230434062205945
79,636230434062371247
79,636230434062536184
79,636230434062706301
79,636230434062871436
79,636230434063041561
79,636230434063206661
79,636230434063371962
79,636230434063541895
79,636230434063707222
80,636230434063872147
80,636230434064042255
80,636230434064207377
80,636230434064377489
80,636230434064542611
80,636230434064707733
80,636230434064877845
80,636230434065043151
80,636230434065208273
80,636230434065378214
80,636230434065543319
80,636230434065713439
80,636230434065878570
80,636230434066043679
80,636230434066213808
80,636230434066378930
80,636230434066544214
80,636230434066714168
80,636230434066879290
80,636230434067049419
80,636230434067214511
80,636230434067379808
80,636230434067549775
80,636230434067714880
80,636230434067880173
80,636230434068050118
80,636230434068215411
80,636230434068385344
80,636230434068550641
80,636230434068715596
80,636230434068885695
80,636230434069050817
80,636230434069216118
80,636230434069386068
80,636230434069551301
80,636230434069721294
80,636230434069886591
80,636230434070051541
80,636230434070221650
80,636230434070386763
80,636230434070551880
80,636230434070722194
80,636230434070887307
80,636230434071057244
80,636230434071222374
80,636230434071387667
80,636230434071557600
80,636230434071722726
80,636230434071887839
80,636230434072058139
80,636230434072223252
80,636230434072393194
80,636230434072558307
80,636230434072723613
80,636230434072893738
80,636230434073058847
80,636230434073223780
80,636230434073394085
80,636230434073559211
80,636230434073729144
80,636230434073894441
80,636230434074059391
80,636230434074229512
80,636230434074394617
80,636230434074564738
80,636230434074730039
80,636230434074894969
80,636230434075065090
80,636230434075230395
80,636230434075395324
80,636230434075565445
80,636230434075730580
80,636230434075900701
80,636230434076065805
80,636230434076231102
80,636230434076401057
80,636230434076566174
80,636230434076731291
80,636230434076901395
80,636230434077066517
80,636230434077236672
80,636230434077401751
80,636230434077566886
81,636230434077736990
81,636230434077902295
81,636230434078067413
81,636230434078237354
81,636230434078402480
81,636230434078572588
81,636230434078737906
81,636230434078903002
81,636230434079072940
81,636230434079238074
81,636230434079403187
81,636230434079573484
81,636230434079738417
81,636230434079908538
81,636230434080073651
81,636230434080238777
81,636230434080409022
81,636230434080574204
81,636230434080744132
81,636230434080909245
81,636230434081074367
81,636230434081244484
81,636230434081409601
81,636230434081574903
81,636230434081744857
81,636230434081909957
81,636230434082080082
81,636230434082245204
81,636230434082410330
81,636230434082580438
81,636230434082745739
81,636230434082910681
81,636230434083080794
81,636230434083245928
81,636230434083411037
81,636230434083581167
81,636230434083746460
81,636230434083916384
81,636230434084081531
81,636230434084246811
81,636230434084416748
81,636230434084581891
81,636230434084751982
81,636230434084917104
81,636230434085082401
81,636230434085252364
81,636230434085417456
81,636230434085582590
81,636230434085752878
81,636230434085917991
81,636230434086087932
81,636230434086253234
81,636230434086418180
81,636230434086588288
81,636230434086753431
81,636230434086918519
81,636230434087088849
81,636230434087253761
81,636230434087423878
81,636230434087589179
81,636230434087754301
81,636230434087924294
81,636230434088089368
81,636230434088259476
81,636230434088424774
81,636230434088589891
81,636230434088759837
81,636230434088924945
81,636230434089090067
81,636230434089260184
81,636230434089425318
81,636230434089590603
81,636230434089760561
81,636230434089925678
81,636230434090095778
81,636230434090261079
81,636230434090426205
81,636230434090596138
81,636230434090761264
81,636230434090926373
81,636230434091096674
81,636230434091261795
81,636230434091431737
81,636230434091597029
81,636230434091761963
81,636230434091932268
81,636230434092097389
81,636230434092267327
81,636230434092432624
81,636230434092597574
81,636230434092767682
81,636230434092932988
81,636230434093097917
81,636230434093268055
81,636230434093433173
81,636230434093598273
81,636230434093768578
81,636230434093933695
81,636230434094103628
81,636230434094268750
81,636230434094433884
81,636230434094604001
81,636230434094769285
81,636230434094939231
81,636230434095104528
81,636230434095269667
81,636230434095439578
81,636230434095604695
81,636230434095769817
81,636230434095939951
81,636230434096105073
81,636230434096275189
81,636230434096440294
81,636230434096605600
81,636230434096775528
81,636230434096940654
81,636230434097105776
81,636230434097275901
81,636230434097441023
81,636230434097611127
81,636230434097776244
81,636230434097941357
81,636230434098111478
81,636230434098276625
81,636230434098441734
81,636230434098611851
81,636230434098776973
81,636230434098947089
81,636230434099112194
81,636230434099277500
81,636230434099447428
81,636230434099612546
81,636230434099777881
81,636230434099947822
81,636230434100113094
81,636230434100283027
81,636230434100448144
81,636230434100613261
81,636230434100783382
81,636230434100948517
81,636230434101113613
81,636230434101283738
81,636230434101448860
81,636230434101618977
81,636230434101784094
81,636230434101949224
81,636230434102119328
81,636230434102284629
81,636230434102449751
81,636230434102619688
81,636230434102784985
81,636230434102954927
81,636230434103120048
81,636230434103285179
81,636230434103455278
81,636230434103620400
81,636230434103785530
81,636230434103955655
81,636230434104120756
81,636230434104290877
81,636230434104456011
81,636230434104621124
81,636230434104791297
81,636230434104956534
81,636230434105121651
81,636230434105291588
81,636230434105456740
81,636230434105626822
81,636230434105791953
81,636230434105957280
81,636230434106127178
81,636230434106292479
81,636230434106462421
81,636230434106627722
81,636230434106792835
81,636230434106962819
81,636230434107127907
81,636230434107293191
81,636230434107463132
81,636230434107628447
81,636230434107798384
81,636230434107963702
81,636230434108128606
81,636230434108298829
81,636230434108463857
81,636230434108628961
81,636230434108799100
81,636230434108964392
81,636230434109134334
81,636230434109299622
81,636230434109464740
81,636230434109634685
81,636230434109799798
81,636230434109964911
81,636230434110135032
81,636230434110300163
81,636230434110470271
81,636230434110635401
81,636230434110800523
81,636230434110970622
81,636230434111135924
81,636230434111300879
81,636230434111471000
81,636230434111636108
81,636230434111806229
81,636230434111971522
81,636230434112136670
81,636230434112306572
81,636230434112471694
81,636230434112637004
81,636230434112807112
81,636230434112972242
81,636230434113142171
81,636230434113307472
81,636230434113472590
81,636230434113642522
81,636230434113807678
81,636230434113972779
81,636230434114142882
81,636230434114308214
81,636230434114478121
81,636230434114643260
81,636230434114808373
81,636230434114978673
81,636230434115143598
81,636230434115308716
81,636230434115478832
81,636230434115643963
81,636230434115814067
81,636230434115979376
81,636230434116144323
81,636230434116314427
81,636230434116479544
81,636230434116649678
81,636230434116814808
81,636230434116979904
81,636230434117150021
81,636230434117315155
81,636230434117480435
81,636230434117650552
81,636230434117815494
81,636230434117980612
81,636230434118150758
81,636230434118315850
81,636230434118485971
81,636230434118651294
81,636230434118816231
81,636230434118986335
81,636230434119151448
81,636230434119316566
81,636230434119486691
81,636230434119651813
81,636230434119821917
81,636230434119987226
81,636230434120152173
81,636230434120322277
81,636230434120487411
81,636230434120657515
81,636230434120822645
81,636230434120987930
81,636230434121157871
81,636230434121323001
81,636230434121488290
81,636230434121658411
81,636230434121823528
81,636230434121993465
81,636230434122158583
81,636230434122323700
81,636230434122493825
81,636230434122659118
81,636230434122824257
81,636230434122994391
81,636230434123159311
81,636230434123329415
81,636230434123494558
81,636230434123659834
81,636230434123829767
81,636230434123995068
81,636230434124160001
81,636230434124330148
81,636230434124495445
81,636230434124665365
81,636230434124830495
81,636230434124995801
81,636230434125165802
81,636230434125330851
81,636230434125495956
81,636230434125666256
81,636230434125831194
81,636230434126001315
81,636230434126166629
81,636230434126331730
81,636230434126501675
81,636230434126666797
81,636230434126832090
81,636230434127002232
81,636230434127167358
81,636230434127337265
81,636230434127502395
81,636230434127667513
81,636230434127837792
81,636230434128002751
81,636230434128167860
81,636230434128337998
81,636230434128503090
81,636230434128673219
81,636230434128838516
81,636230434129003634
81,636230434129173776
82,636230434129338684
82,636230434129508809
82,636230434129673940
82,636230434129839040
82,636230434130009161
82,636230434130174462
82,636230434130339592
82,636230434130509521
82,636230434130674655
82,636230434130839760
82,636230434131010061
82,636230434131175187
82,636230434131345111
82,636230434131510416
82,636230434131675354
82,636230434131845659
82,636230434132010606
82,636230434132180709
82,636230434132345823
82,636230434132511128
82,636230434132681138
82,636230434132846183
82,636230434133011300
82,636230434133181434
82,636230434133346718
82,636230434133516655
82,636230434133681965
82,636230434133846894
82,636230434134017011
82,636230434134182133
82,636230434134347434
82,636230434134517384
82,636230434134682506
82,636230434134852622
82,636230434135017744
82,636230434135182840
82,636230434135352965
82,636230434135518271
82,636230434135683427
82,636230434135853321
82,636230434136018443
83,636230434136188559
83,636230434136353856
83,636230434136518799
83,636230434136688911
83,636230434136854221
83,636230434137019154
83,636230434137189288
83,636230434137354384
83,636230434137524505
83,636230434137689623
83,636230434137854924
83,636230434138024865
83,636230434138189995
83,636230434138355284
83,636230434138525405
83,636230434138690334
83,636230434138860472
83,636230434139025581
83,636230434139190703
83,636230434139360820
83,636230434139525945
83,636230434139691054
83,636230434139861171
83,636230434140026284
83,636230434140196405
83,636230434140361544
83,636230434140526661
83,636230434140696949
83,636230434140862075
83,636230434141027184
83,636230434141197125
83,636230434141362243
83,636230434141532359
83,636230434141697656
83,636230434141862782
83,636230434142032720
83,636230434142197833
83,636230434142367954
83,636230434142533071
83,636230434142698372
83,636230434142868318
83,636230434143033611
83,636230434143198741
83,636230434143368665
83,636230434143533800
83,636230434143703904
83,636230434143869034
83,636230434144034348
83,636230434144204255
83,636230434144369377
83,636230434144534674
83,636230434144704632
83,636230434144869917
83,636230434145039866
83,636230434145204984
83,636230434145370106
83,636230434145540209
83,636230434145705335
83,636230434145870444
83,636230434146040753
83,636230434146205683
83,636230434146375804
83,636230434146541105
83,636230434146706222
83,636230434146876155
83,636230434147041290
83,636230434147206407
83,636230434147376515
83,636230434147541633
83,636230434147711758
83,636230434147877055
83,636230434148042172
83,636230434148212105
83,636230434148377407
83,636230434148542357
83,636230434148712645
83,636230434148877604
83,636230434149047704
83,636230434149212825
83,636230434149377939
83,636230434149548055
85,636230434149713365
85,636230434149878311
85,636230434150048599
85,636230434150213554
85,636230434150383654
85,636230434150548989
85,636230434150713966
85,636230434150884005
85,636230434151049307
85,636230434151214244
85,636230434151384549
85,636230434151549483
85,636230434151719604
85,636230434151884725
85,636230434152050018
85,636230434152219955
85,636230434152385265
85,636230434152555198
85,636230434152720332
85,636230434152885612
85,636230434153055554
85,636230434153220684
85,636230434153385806
85,636230434153555914
85,636230434153721027
85,636230434153886328
85,636230434154056282
85,636230434154221567
85,636230434154391504
85,636230434154556621
85,636230434154721756
85,636230434154892078
85,636230434155058961
85,636230434155226076
85,636230434155393674
85,636230434155559997
85,636230434155730409
85,636230434155894658
85,636230434156061435
85,636230434156228849
85,636230434156395099
85,636230434156563754
85,636230434156729444
85,636230434156895336
85,636230434157063092
85,636230434157227726
85,636230434157397334
85,636230434157564384
85,636230434157732585
85,636230434157899199
85,636230434158065894
85,636230434158232338
85,636230434158399503
85,636230434158562820
85,636230434158733741
85,636230434158898713
85,636230434159067329
85,636230434159232754
85,636230434159401040
85,636230434159568831
85,636230434159735312
85,636230434159902974
85,636230434160069328
85,636230434160236908
85,636230434160400431
85,636230434160570543
85,636230434160735665
85,636230434160900778
85,636230434161070899
85,636230434161236204
85,636230434161403020
85,636230434161570626
85,636230434161738968
85,636230434161906792
85,636230434162073586
85,636230434162238793
85,636230434162404052
85,636230434162573835
85,636230434162739538
85,636230434162905776
85,636230434163071167
85,636230434163241464
85,636230434163406410
85,636230434163576698
85,636230434163741828
85,636230434163906950
85,636230434164077071
85,636230434164241991
85,636230434164412112
85,636230434164577255
85,636230434164742352
85,636230434164912485
85,636230434165077590
85,636230434165242908
85,636230434165413021
85,636230434165577946
85,636230434165743067
85,636230434165913188
85,636230434166078314
85,636230434166248602
85,636230434166413720
85,636230434166578845
85,636230434166748778
85,636230434166913900
85,636230434167084017
85,636230434167249151
85,636230434167414273
85,636230434167584561
85,636230434167749503
85,636230434167919607
85,636230434168084908
85,636230434168249846
85,636230434168419962
85,636230434168585080
85,636230434168750206
85,636230434168920323
85,636230434169085457
85,636230434169250737
85,636230434169420674
85,636230434169585809
85,636230434169755912
85,636230434169921043
85,636230434170086335
85,636230434170256290
85,636230434170421403
85,636230434170586691
85,636230434170756641
85,636230434170921763
85,636230434171091867
85,636230434171257189
85,636230434171422303
85,636230434171592406
85,636230434171757520
85,636230434171922646
85,636230434172092574
85,636230434172257696
85,636230434172427936
85,636230434172592930
85,636230434172758235
85,636230434172928185
85,636230434173093478
85,636230434173258424
85,636230434173428524
85,636230434173593847
85,636230434173763784
85,636230434173928880
85,636230434174094185
85,636230434174264302
85,636230434174429424
85,636230434174599357
85,636230434174764658
85,636230434174929596
85,636230434175099734
85,636230434175264877
85,636230434175429947
85,636230434175600278
85,636230434175765408
85,636230434175935307
85,636230434176100424
85,636230434176265730
85,636230434176435859
85,636230434176600968
85,636230434176765923
85,636230434176936202
85,636230434177101320
85,636230434177271261
85,636230434177436387
85,636230434177601513
85,636230434177771822
85,636230434177936948
85,636230434178102035
85,636230434178271990
85,636230434178437150
85,636230434178607224
85,636230434178772328
85,636230434178937630
85,636230434179107751
85,636230434179272680
85,636230434179437827
85,636230434179607944
85,636230434179773057
85,636230434179943161
85,636230434180108291
85,636230434180273392
85,636230434180443705
85,636230434180608818
85,636230434180773769
85,636230434180943877
85,636230434181109170
85,636230434181279107
85,636230434181444408
85,636230434181609350
85,636230434181779659
85,636230434181944785
85,636230434182109702
85,636230434182279818
85,636230434182444936
85,636230434182615061
85,636230434182780174
85,636230434182945300
85,636230434183115417
85,636230434183280718
85,636230434183445831
85,636230434183615785
85,636230434183781078
85,636230434183951015
85,636230434184116128
85,636230434184281263
85,636230434184451551
85,636230434184616480
85,636230434184781786
85,636230434184951907
85,636230434185116836
85,636230434185286961
85,636230434185452096
85,636230434185617209
85,636230434185787518
85,636230434185952430
85,636230434186122555
85,636230434186287886
85,636230434186452970
85,636230434186622907
85,636230434186788212
85,636230434186953325
85,636230434187123451
85,636230434187288564
85,636230434187453681
85,636230434187623819
85,636230434187788744
85,636230434187958865
85,636230434188124158
85,636230434188289280
85,636230434188459431
85,636230434188624518
85,636230434188794455
85,636230434188959752
85,636230434189124870
85,636230434189294824
85,636230434189460112
85,636230434189625059
85,636230434189795163
85,636230434189960280
85,636230434190130405
85,636230434190295702
85,636230434190460640
85,636230434190630975
85,636230434190796062
85,636230434190961175
85,636230434191131296
85,636230434191296239
85,636230434191466360
85,636230434191631661
85,636230434191796770
85,636230434191966711
85,636230434192131833
85,636230434192296942
85,636230434192467080
85,636230434192632184
85,636230434192802310
85,636230434192967418
85,636230434193132553
85,636230434193302853
85,636230434193467791
85,636230434193632909
85,636230434193803201
85,636230434193968147
85,636230434194138260
85,636230434194303373
85,636230434194468507
85,636230434194638628
85,636230434194803728
85,636230434194969030
85,636230434195139146
85,636230434195304264
85,636230434195474227
85,636230434195639507
85,636230434195804628
85,636230434195974741
85,636230434196139696
85,636230434196309795
85,636230434196474917
85,636230434196640051
85,636230434196810219
85,636230434196975457
85,636230434197140574
85,636230434197310507
85,636230434197475808
85,636230434197645749
85,636230434197810867
85,636230434197976164
85,636230434198146208
85,636230434198311415
85,636230434198476336
85,636230434198646649
85,636230434198811596
85,636230434198981699
85,636230434199146834
85,636230434199312114
85,636230434199482226
85,636230434199647186
85,636230434199812470
85,636230434199982407
85,636230434200147529
85,636230434200317645
85,636230434200482775
85,636230434200648064
85,636230434200818005
85,636230434200983123
85,636230434201148244
85,636230434201318370
85,636230434201483483
85,636230434201653599
85,636230434201818730
85,636230434201983830
85,636230434202154148
85,636230434202319261
85,636230434202484199
85,636230434202654328
85,636230434202819424
85,636230434202989545
85,636230434203154851
85,636230434203319797
85,636230434203489910
85,636230434203655036
85,636230434203820324
85,636230434203990454
85,636230434204155391
85,636230434204325508
85,636230434204490621
85,636230434204655918
85,636230434204825868
85,636230434204991178
85,636230434205156103
85,636230434205326224
85,636230434205491508
85,636230434205661450
85,636230434205826563
85,636230434205991791
85,636230434206161989
85,636230434206327102
85,636230434206492062
85,636230434206662170
85,636230434206827291
85,636230434206997417
85,636230434207162722
85,636230434207327823
85,636230434207497935
85,636230434207663057
85,636230434207832989
85,636230434207998128
85,636230434208163241
85,636230434208333414
85,636230434208498484
85,636230434208663597
85,636230434208833714
85,636230434208999032
85,636230434209168944
85,636230434209334245
85,636230434209499362
85,636230434209669406
85,636230434209834601
85,636230434209999530
85,636230434210169835
85,636230434210334957
85,636230434210504894
85,636230434210670028
85,636230434210835146
85,636230434211005404
85,636230434211170363
85,636230434211335677
85,636230434211505785
85,636230434211670902
85,636230434211840844
85,636230434212006149
85,636230434212171258
85,636230434212341200
85,636230434212506313
85,636230434212671618
85,636230434212841735
85,636230434213006686
85,636230434213176807
85,636230434213341907
85,636230434213507212
85,636230434213677338
85,636230434213842267
85,636230434214007573
85,636230434214177518
85,636230434214342636
85,636230434214512744
85,636230434214678045
85,636230434214843167
85,636230434215013095
85,636230434215178213
85,636230434215343510
85,636230434215513460
85,636230434215678752
85,636230434215848690
85,636230434216013991
85,636230434216179108
85,636230434216349233
85,636230434216514167
85,636230434216679297
85,636230434216849405
85,636230434217014531
85,636230434217184648
85,636230434217349757
85,636230434217515067
85,636230434217685077
85,636230434217850113
85,636230434218015427
85,636230434218185373
85,636230434218350490
85,636230434218520594
85,636230434218685728
85,636230434218850841
85,636230434219020950
85,636230434219186084
85,636230434219351368
85,636230434219521301
85,636230434219686624
85,636230434219856557
85,636230434220021841
85,636230434220186774
85,636230434220356895
85,636230434220522026
85,636230434220687139
85,636230434220857439
85,636230434221022377
85,636230434221192498
85,636230434221357607
85,636230434221522741
85,636230434221692884
85,636230434221858181
85,636230434222028084
85,636230434222193201
85,636230434222358336
85,636230434222528628
85,636230434222693745
85,636230434222858863
85,636230434223028800
85,636230434223193943
85,636230434223364034
85,636230434223529339
85,636230434223694290
85,636230434223864582
85,636230434224029524
85,636230434224199628
85,636230434224364767
85,636230434224530051
85,636230434224699984
85,636230434224865118
85,636230434225030407
85,636230434225200344
85,636230434225365474
85,636230434225530788
85,636230434225700712
85,636230434225866001
85,636230434226035938
85,636230434226201235
85,636230434226366357
85,636230434226536324
85,636230434226701595
85,636230434226866713
85,636230434227036645
85,636230434227201767
85,636230434227371884
85,636230434227537018
85,636230434227702324
85,636230434227872342
85,636230434228037366
85,636230434228202671
85,636230434228372784
85,636230434228537717
85,636230434228707838
85,636230434228872964
85,636230434229038069
85,636230434229208190
85,636230434229373324
85,636230434229538429
85,636230434229708550
85,636230434229873868
85,636230434230043792
85,636230434230208901
85,636230434230374019
85,636230434230544332
85,636230434230709274
85,636230434230879382
85,636230434231044679
85,636230434231209797
85,636230434231379742
85,636230434231544856
85,636230434231710153
85,636230434231880107
85,636230434232045399
85,636230434232210333
85,636230434232380634
85,636230434232545563
85,636230434232715688
85,636230434232880989
85,636230434233045931
85,636230434233216057
85,636230434233381166
85,636230434233551287
85,636230434233716400
85,636230434233881722
85,636230434234051651
85,636230434234216756
85,636230434234381916
85,636230434234552186
85,636230434234717107
85,636230434234887232
85,636230434235052529
85,636230434235217480
85,636230434235387588
85,636230434235552710
85,636230434235717819
85,636230434235888132
85,636230434236053074
85,636230434236223178
85,636230434236388317
85,636230434236553430
85,636230434236723534
85,636230434236888668
85,636230434237053948
85,636230434237224074
85,636230434237389028
85,636230434237559132
85,636230434237724245
85,636230434237889380
85,636230434238059501
85,636230434238224683
85,636230434238389907
85,636230434238559857
85,636230434238725145
85,636230434238895082
85,636230434239060217
85,636230434239225313
85,636230434239395451
85,636230434239560568
85,636230434239725861
85,636230434239895807
85,636230434240061091
85,636230434240231037
85,636230434240396163
85,636230434240561451
85,636230434240731401
85,636230434240896506
85,636230434241061640
85,636230434241231753
85,636230434241397041
85,636230434241566978
85,636230434241732095
85,636230434241897397
85,636230434242067351
85,636230434242232468
85,636230434242402577
85,636230434242567912
85,636230434242732995
85,636230434242903009
85,636230434243068234
85,636230434243233355
85,636230434243403301
85,636230434243568401
85,636230434243738535
85,636230434243903657
85,636230434244068770
85,636230434244238882
85,636230434244404081
85,636230434244569113
85,636230434244739260
85,636230434244904351
85,636230434245074477
85,636230434245239778
85,636230434245404891
85,636230434245574974
85,636230434245740134
85,636230434245905247
85,636230434246075188
85,636230434246240310
85,636230434246410427
85,636230434246575565
85,636230434246740661
85,636230434246910778
85,636230434247076079
85,636230434247241034
85,636230434247411322
85,636230434247576251
85,636230434247746377
85,636230434247911674
85,636230434248076616
85,636230434248246737
85,636230434248411846
85,636230434248577249
85,636230434248747268
85,636230434248912218
85,636230434249082327
85,636230434249247624
85,636230434249412566
85,636230434249582682
85,636230434249747796
85,636230434249913097
85,636230434250083038
85,636230434250248173
85,636230434250418281
85,636230434250583574
85,636230434250748721
85,636230434250918632
85,636230434251083763
85,636230434251248867
85,636230434251418992
85,636230434251584106
85,636230434251754227
85,636230434251919361
85,636230434252084556
85,636230434252254766
85,636230434252419708
85,636230434252589821
85,636230434252755139
85,636230434252920240
85,636230434253090172
85,636230434253255290
85,636230434253420429
85,636230434253590588
85,636230434253755834
86,636230434253920763
86,636230434254090901
86,636230434254256001
86,636230434254426131
86,636230434254591248
86,636230434254756562
86,636230434254926495
86,636230434255091596
86,636230434255261721
86,636230434255427018
86,636230434255591951
86,636230434255762072
86,636230434255927382
86,636230434256092491
86,636230434256262612
86,636230434256427729
86,636230434256597675
86,636230434256762784
86,636230434256928085
86,636230434257098232
86,636230434257263298
86,636230434257428484
86,636230434257598400
86,636230434257763500
86,636230434257933638
86,636230434258098926
86,636230434258263856
86,636230434258434165
86,636230434258599094
86,636230434258764229
86,636230434258934538
86,636230434259099664
86,636230434259269571
86,636230434259434701
86,636230434259599819
86,636230434259769927
86,636230434259935245
86,636230434260100345
86,636230434260270462
86,636230434260435396
86,636230434260605534
86,636230434260770822
87,636230434260935769
87,636230434261105877
87,636230434261271195
87,636230434261436321
87,636230434261606412
87,636230434261771530
87,636230434261941467
87,636230434262106601
87,636230434262271701
87,636230434262441857
87,636230434262606940
87,636230434262772066
87,636230434262942208
87,636230434263107296
87,636230434263277421
87,636230434263442726
87,636230434263607835
87,636230434263777973
87,636230434263943087
87,636230434264108200
87,636230434264278338
87,636230434264443246
87,636230434264613375
87,636230434264778488
87,636230434264943623
87,636230434265113911
87,636230434265279049
87,636230434265444163
87,636230434265614087
87,636230434265779221
87,636230434265949321
87,636230434266114618
87,636230434266279551
87,636230434266449690
87,636230434266614798
87,636230434266780091
87,636230434266950050
87,636230434267115163
87,636230434267285271
87,636230434267450384
87,636230434267615501
87,636230434267785815
87,636230434267950761
87,636230434268120865
87,636230434268285983
87,636230434268451280
87,636230434268621221
87,636230434268786351
87,636230434268951464
87,636230434269121585
87,636230434269286882
87,636230434269456815
87,636230434269621928
87,636230434269787251
87,636230434269957192
87,636230434270122468
87,636230434270287594
87,636230434270457522
87,636230434270622644
87,636230434270792765
87,636230434270957883
87,636230434271123017
87,636230434271293134
87,636230434271458251
87,636230434271623540
87,636230434271793682
87,636230434271958590
87,636230434272128715
87,636230434272294012
87,636230434272459134
87,636230434272629255
87,636230434272794210
87,636230434272959490
87,636230434273129611
87,636230434273294557
87,636230434273464665
87,636230434273630005
87,636230434273794896
87,636230434273965094
87,636230434274130151
87,636230434274295252
87,636230434274465556
88,636230434274630678
88,636230434274800615
88,636230434274965728
88,636230434275131030
88,636230434275301159
88,636230434275466268
88,636230434275631210
88,636230434275801515
88,636230434275966444
88,636230434276136578
88,636230434276301875
88,636230434276466984
88,636230434276637088
88,636230434276802038
88,636230434276967340
88,636230434277137290
88,636230434277302574
88,636230434277472515
88,636230434277637821
88,636230434277802750
88,636230434277972875
88,636230434278138006
88,636230434278303106
88,636230434278473428
88,636230434278638524
88,636230434278808461
88,636230434278973766
88,636230434279138717
88,636230434279309013
88,636230434279473938
88,636230434279639073
88,636230434279809173
88,636230434279974290
88,636230434280144419
88,636230434280309545
88,636230434280474834
88,636230434280644767
88,636230434280809884
88,636230434280980005
88,636230434281145306
88,636230434281310244
88,636230434281480365
88,636230434281645508
88,636230434281810617
88,636230434281980747
88,636230434282145847
88,636230434282315959
88,636230434282481282
88,636230434282646378
88,636230434282816315
88,636230434282981433
88,636230434283146730
88,636230434283316855
88,636230434283481788
88,636230434283651905
88,636230434283817027
88,636230434283982324
88,636230434284152453
88,636230434284317584
88,636230434284482714
88,636230434284652801
88,636230434284817743
88,636230434284987859
88,636230434285152977
88,636230434285318287
88,636230434285488399
88,636230434285653512
88,636230434285818450
88,636230434285988751
88,636230434286153889
88,636230434286323809
88,636230434286489128
88,636230434286654040
88,636230434286824178
88,636230434286989283
88,636230434287159404
88,636230434287324521
88,636230434287489651
88,636230434287659764
88,636230434287824894
88,636230434287990182
88,636230434288160132
88,636230434288325417
88,636230434288495358
88,636230434288660484
88,636230434288825593
88,636230434288995727
88,636230434289160848
88,636230434289325957
88,636230434289496245
88,636230434289661371
88,636230434289831304
88,636230434289996601
88,636230434290161534
88,636230434290331664
88,636230434290496790
88,636230434290661924
88,636230434290832015
88,636230434290997317
88,636230434291167254
88,636230434291332367
88,636230434291497488
88,636230434291667605
88,636230434291832919
88,636230434291998028
88,636230434292168153
88,636230434292333083
88,636230434292503204
88,636230434292668334
88,636230434292833639
88,636230434293003709
88,636230434293168822
88,636230434293333978
88,636230434293504103
88,636230434293669212
88,636230434293839154
88,636230434294004455
88,636230434294169393
88,636230434294339505
88,636230434294504807
88,636230434294669932
88,636230434294839870
89,636230434295005167
89,636230434295175099
89,636230434295340234
89,636230434295505518
89,636230434295675656
89,636230434295840594
89,636230434296005716
89,636230434296175824
89,636230434296340937
89,636230434296511067
89,636230434296676376
89,636230434296841477
89,636230434297011593
89,636230434297176527
89,636230434297341824
89,636230434297511770
89,636230434297677071
89,636230434297847017
89,636230434298012138
89,636230434298177418
89,636230434298347381
89,636230434298512657
89,636230434298677594
89,636230434298847741
89,636230434299012828
89,636230434299182949
89,636230434299348255
89,636230434299513206
89,636230434299683374
89,636230434299848423
89,636230434300013549
89,636230434300183665
89,636230434300348791
89,636230434300518917
89,636230434300684025
89,636230434300849318
89,636230434301019354
89,636230434301184390
89,636230434301349674
89,636230434301519611
89,636230434301684912
89,636230434301854862
89,636230434302019971
89,636230434302185272
89,636230434302355393
89,636230434302520336
89,636230434302685628
89,636230434302855745
89,636230434303020678
89,636230434303190812
89,636230434303355934
89,636230434303521051
89,636230434303691309
89,636230434303856294
89,636230434304021403
89,636230434304191528
89,636230434304356812
89,636230434304526946
89,636230434304691875
89,636230434304856984
89,636230434305027289
89,636230434305192240
89,636230434305362361
89,636230434305527649
89,636230434305692767
89,636230434305872711
89,636230434306028001
89,636230434306192960
89,636230434306363055
89,636230434306528181
89,636230434306698294
89,636230434306863595
89,636230434307028529
89,636230434307198842
89,636230434307363959
89,636230434307529068
89,636230434307699018
89,636230434307864311
89,636230434308034248
89,636230434308199378
89,636230434308364500
89,636230434308534788
89,636230434308699725
89,636230434308869838
89,636230434309034977
89,636230434309200257
89,636230434309370198
89,636230434309535332
89,636230434309700446
89,636230434309870622
89,636230434310035667
89,636230434310200801
89,636230434310370927
89,636230434310536036
89,636230434310706148
89,636230434310871445
89,636230434311036400
89,636230434311206602
89,636230434311371801
89,636230434311536880
89,636230434311707043
89,636230434311871977
89,636230434312042098
89,636230434312207211
89,636230434312372512
89,636230434312542638
89,636230434312707755
89,636230434312872693
89,636230434313042805
89,636230434313207940
89,636230434313378048
89,636230434313543178
89,636230434313708471
89,636230434313878404
89,636230434314043701
89,636230434314208656
89,636230434314378944
89,636230434314543903
89,636230434314713998
89,636230434314879295
89,636230434315044246
89,636230434315214358
89,636230434315379484
89,636230434315549588
89,636230434315714705
89,636230434315880011
89,636230434316050021
89,636230434316215061
89,636230434316380367
89,636230434316550317
89,636230434316715438
89,636230434316885542
89,636230434317050655
89,636230434317215773
89,636230434317385988
89,636230434317551216
89,636230434317716137
89,636230434317886433
89,636230434318051384
89,636230434318221492
89,636230434318386798
89,636230434318551723
89,636230434318721865
89,636230434318886978
89,636230434319052096
89,636230434319222200
89,636230434319387514
89,636230434319557438
89,636230434319722765
89,636230434319887857
89,636230434320057862
89,636230434320222924
89,636230434320388221
89,636230434320558346
89,636230434320723464
89,636230434320893388
89,636230434321058689
89,636230434321223644
89,636230434321393932
89,636230434321558865
89,636230434321723991
89,636230434321894100
89,636230434322059696
89,636230434322229629
89,636230434322394930
89,636230434322560048
89,636230434322730177
89,636230434322895102
89,636230434323060403
89,636230434323230529
89,636230434323395466
89,636230434323565592
89,636230434323730880
89,636230434323896002
89,636230434324065935
89,636230434324231048
89,636230434324396178
89,636230434324566479
89,636230434324731408
89,636230434324901546
89,636230434325066830
89,636230434325231948
89,636230434325401902
89,636230434325567011
89,636230434325732124
89,636230434325902433
89,636230434326067542
89,636230434326237479
89,636230434326402613
89,636230434326567726
89,636230434326738027
89,636230434326903140
89,636230434327068074
89,636230434327238379
89,636230434327403496
89,636230434327573442
89,636230434327738563
89,636230434327903672
89,636230434328073815
89,636230434328238906
89,636230434328404225
89,636230434328574175
89,636230434328739279
89,636230434328909383
89,636230434329074680
89,636230434329239798
89,636230434329409931
89,636230434329575049
88,636230434329739982
88,636230434329910095
88,636230434330075435
88,636230434330245329
88,636230434330410634
88,636230434330575748
88,636230434330745873
88,636230434330910802
88,636230434331080923
88,636230434331246224
88,636230434331411342
88,636230434331581279
88,636230434331746589
88,636230434331911522
88,636230434332081635
88,636230434332246940
88,636230434332412062
88,636230434332582179
88,636230434332747121
88,636230434332917237
88,636230434333082368
88,636230434333247656
88,636230434333417593
88,636230434333582719
88,636230434333752827
88,636230434333917953
88,636230434334083084
88,636230434334253256
88,636230434334418305
88,636230434334583598
88,636230434334753719
88,636230434334918656
88,636230434335088786
88,636230434335253890
88,636230434335419192
88,636230434335589150
88,636230434335754434
88,636230434335919368
88,636230434336089493
88,636230434336254829
89,636230434336424727
89,636230434336589858
89,636230434336754958
89,636230434336925276
89,636230434337090380
89,636230434337255318
89,636230434337425619
89,636230434337590569
89,636230434337760677
89,636230434337925812
89,636230434338090912
89,636230434338261217
89,636230434338426356
89,636230434338591268
89,636230434338761569
89,636230434338926695
89,636230434339096623
89,636230434339261741
89,636230434339427042
89,636230434339596983
89,636230434339762105
89,636230434339932217
89,636230434340097343
89,636230434340262469
89,636230434340432573
89,636230434340597909
89,636230434340762992
89,636230434340933121
89,636230434341098234
89,636230434341268172
89,636230434341433477
89,636230434341598586
89,636230434341768540
89,636230434341933829
89,636230434342098766
89,636230434342268909
89,636230434342434180
89,636230434342604122
89,636230434342769256
89,636230434342934540
89,636230434343104619
89,636230434343269774
89,636230434343434905
89,636230434343605017
89,636230434343770130
89,636230434343940072
89,636230434344105185
89,636230434344270311
89,636230434344440479
89,636230434344605549
89,636230434344770662
89,636230434344940783
89,636230434345106080
89,636230434345271031
89,636230434345441327
89,636230434345606449
89,636230434345776373
89,636230434345941679
89,636230434346106792
89,636230434346276733
89,636230434346441859
89,636230434346611967
89,636230434346777089
89,636230434346942219
89,636230434347112477
89,636230434347277453
89,636230434347442575
89,636230434347612683
89,636230434347777796
89,636230434347947934
89,636230434348113039
89,636230434348278174
89,636230434348448282
89,636230434348613399
89,636230434348778512
89,636230434348948633
89,636230434349113751
89,636230434349283867
89,636230434349449177
89,636230434349614136
89,636230434349784420
89,636230434349949537
89,636230434350114475
89,636230434350284583
89,636230434350449773
89,636230434350619826
89,636230434350785123
89,636230434350950262
89,636230434351120195
89,636230434351285487
89,636230434351450425
89,636230434351620721
89,636230434351785843
89,636230434351955767
89,636230434352120889
89,636230434352286186
89,636230434352456136
89,636230434352621433
89,636230434352786362
89,636230434352956479
89,636230434353121601
89,636230434353291730
89,636230434353456835
89,636230434353622149
89,636230434353792073
89,636230434353957379
89,636230434354127316
89,636230434354292613
89,636230434354457730
89,636230434354627676
89,636230434354792986
89,636230434354957979
89,636230434355128027
89,636230434355293350
89,636230434355463266
89,636230434355628400
89,636230434355793514
89,636230434355963626
89,636230434356128735
89,636230434356293869
89,636230434356463973
89,636230434356629275
89,636230434356799280
89,636230434356964342
89,636230434357129630
89,636230434357299567
89,636230434357464702
89,636230434357629986
89,636230434357800111
89,636230434357965045
89,636230434358130539
89,636230434358300822
89,636230434358465969
89,636230434358635881
89,636230434358800994
89,636230434358966120
89,636230434359136237
89,636230434359301551
89,636230434359471471
89,636230434359636593
89,636230434359801894
89,636230434359971912
89,636230434360136948
89,636230434360302070
89,636230434360472191
89,636230434360637304
89,636230434360802614
89,636230434360972735
89,636230434361137664
89,636230434361307781
89,636230434361472915
89,636230434361638208
89,636230434361808321
89,636230434361973263
89,636230434362143371
89,636230434362308497
89,636230434362473794
89,636230434362643825
89,636230434362809037
89,636230434362973970
89,636230434363144087
89,636230434363309221
89,636230434363479329
89,636230434363644460
89,636230434363809577
89,636230434363979792
89,636230434364144987
89,636230434364310104
89,636230434364480229
89,636230434364645338
89,636230434364815279
89,636230434364980585
89,636230434365145694
89,636230434365315635
89,636230434365480770
89,636230434365646084
89,636230434365815987
89,636230434365981288
89,636230434366151229
89,636230434366316347
89,636230434366481644
89,636230434366651598
89,636230434366816698
89,636230434366981816
89,636230434367152116
89,636230434367317071
89,636230434367487175
89,636230434367652485
89,636230434367817414
89,636230434367987770
89,636230434368152653
89,636230434368317762
89,636230434368487887
89,636230434368653192
89,636230434368823129
89,636230434368988431
89,636230434369153377
89,636230434369323669
89,636230434369488787
89,636230434369653724
89,636230434369823858
89,636230434369988971
89,636230434370159075
89,636230434370324193
89,636230434370489310
89,636230434370659619
89,636230434370824561
89,636230434370994669
89,636230434371159971
89,636230434371324904
89,636230434371495029
89,636230434371660151
89,636230434371825260
89,636230434371995565
89,636230434372160717
89,636230434372330619
89,636230434372495921
89,636230434372661038
89,636230434372830975
89,636230434372996277
89,636230434373161394
89,636230434373331515
89,636230434373496632
89,636230434373666569
89,636230434373831687
89,636230434373996988
89,636230434374166925
89,636230434374332265
89,636230434374497344
89,636230434374667465
89,636230434374832582
89,636230434375002519
89,636230434375167654
89,636230434375332938
89,636230434375503068
89,636230434375668172
89,636230434375833303
89,636230434376003231
89,636230434376168370
89,636230434376338469
89,636230434376503608
89,636230434376668888
89,636230434376839022
89,636230434377004131
89,636230434377169253
89,636230434377339369
89,636230434377504316
89,636230434377674419
89,636230434377839721
89,636230434378004654
89,636230434378174771
89,636230434378340085
89,636230434378505215
89,636230434378675135
89,636230434378840432
89,636230434379010369
89,636230434379175504
89,636230434379340617
89,636230434379510738
89,636230434379676035
89,636230434379840960
89,636230434380011269
89,636230434380176391
89,636230434380346319
89,636230434380511437
89,636230434380676772
89,636230434380846889
89,636230434381011977
89,636230434381176927
89,636230434381347215
89,636230434381512161
89,636230434381682269
89,636230434381847579
89,636230434382012509
89,636230434382182818
89,636230434382347743
89,636230434382513044
89,636230434382683165
89,636230434382848304
89,636230434383018219
89,636230434383183350
89,636230434383348642
89,636230434383518575
89,636230434383683693
89,636230434383848998
89,636230434384018948
89,636230434384184061
89,636230434384354169
89,636230434384519283
89,636230434384684417
89,636230434384854538
89,636230434385019848
89,636230434385189764
89,636230434385355065
89,636230434385519999
89,636230434385690119
89,636230434385855425
89,636230434386020354
89,636230434386190663
89,636230434386355601
89,636230434386525714
89,636230434386690891
89,636230434386855970
89,636230434387026279
89,636230434387191396
89,636230434387356497
89,636230434387526618
89,636230434387691731
89,636230434387861677
89,636230434388026798
89,636230434388192091
89,636230434388362037
89,636230434388527141
89,636230434388692314
89,636230434388862392
89,636230434389027493
89,636230434389197614
89,636230434389362915
89,636230434389528032
89,636230434389698158
89,636230434389863271
89,636230434390028209
89,636230434390198513
89,636230434390363631
89,636230434390533572
89,636230434390698711
89,636230434390863816
89,636230434391033937
89,636230434391199221
89,636230434391364338
89,636230434391534275
89,636230434391699581
89,636230434391869514
89,636230434392034819
89,636230434392199932
89,636230434392370062
89,636230434392535008
89,636230434392700301
89,636230434392870405
89,636230434393035343
89,636230434393205464
89,636230434393370598
89,636230434393535878
89,636230434393706008
89,636230434393870937
89,636230434394036247
89,636230434394206188
89,636230434394371477
89,636230434394541418
89,636230434394706715
89,636230434394871837
89,636230434395041787
89,636230434395207071
89,636230434395372017
89,636230434395542309
89,636230434395707439
89,636230434395877368
89,636230434396042674
89,636230434396207787
89,636230434396377732
89,636230434396543025
89,636230434396712958
89,636230434396878071
89,636230434397043206
89,636230434397213318
89,636230434397378444
89,636230434397543728
89,636230434397713853
89,636230434397878975
89,636230434398048908
89,636230434398214021
89,636230434398379327
89,636230434398549264
89,636230434398714569
89,636230434398879524
89,636230434399049645
89,636230434399214741
89,636230434399384858
89,636230434399549997
89,636230434399715114
89,636230434399885209
89,636230434400050348
89,636230434400215453
89,636230434400385762
89,636230434400550687
89,636230434400720812
89,636230434400886118
89,636230434401051047
89,636230434401221172
89,636230434401386281
89,636230434401551583
89,636230434401721708
89,636230434401886650
89,636230434402056758
89,636230434402221875
89,636230434402387177
89,636230434402557272
89,636230434402722428
89,636230434402892352
89,636230434403057478
89,636230434403222591
89,636230434403392708
89,636230434403558014
89,636230434403723131
89,636230434403893179
89,636230434404058374
89,636230434404223491
89,636230434404393437
89,636230434404558558
89,636230434404728658
89,636230434404893964
89,636230434405058889
89,636230434405229211
89,636230434405394136
89,636230434405564256
89,636230434405729374
89,636230434405894675
89,636230434406064612
89,636230434406229738
89,636230434406394843
88,636230434406564977
88,636230434406730098
88,636230434406900202
88,636230434407065332
88,636230434407230621
88,636230434407400562
88,636230434407565684
88,636230434407730806
88,636230434407900914
88,636230434408066048
88,636230434408236152
88,636230434408401270
88,636230434408566408
88,636230434408736521
88,636230434408901809
88,636230434409066747
88,636230434409237048
88,636230434409401986
88,636230434409567120
88,636230434409737224
88,636230434409902337
88,636230434410072479
88,636230434410237588
88,636230434410402697
88,636230434410572998
88,636230434410737944
88,636230434410908057
88,636230434411073354
88,636230434411238480
88,636230434411408408
88,636230434411573530
88,636230434411738647
88,636230434411908982
88,636230434412074065
88,636230434412244002
88,636230434412409299
88,636230434412574250
88,636230434412744354
88,636230434412909488
88,636230434413074619
88,636230434413244731
88,636230434413409844
88,636230434413579952
88,636230434413745074
88,636230434413910208
88,636230434414080325
88,636230434414245443
88,636230434414410551
88,636230434414580681
88,636230434414745781
88,636230434414915911
88,636230434415081033
88,636230434415246137
88,636230434415416258
88,636230434415581375
88,636230434415746493
88,636230434415916793
88,636230434416081941
88,636230434416251861
88,636230434416416974
88,636230434416582087
88,636230434416752208
88,636230434416917488
88,636230434417082439
88,636230434417252581
88,636230434417417681
88,636230434417587802
88,636230434417752920
88,636230434417918041
88,636230434418088184
88,636230434418253276
88,636230434418418397
88,636230434418588728
88,636230434418753644
88,636230434418923791
88,636230434419088870
88,636230434419253983
88,636230434419424296
88,636230434419589405
88,636230434419759346
88,636230434419924468
88,636230434420089586
88,636230434420259805
88,636230434420425038
88,636230434420589941
87,636230434420760075
87,636230434420925188
87,636230434421095297
87,636230434421260602
87,636230434421425531
87,636230434421595785
87,636230434421760825
87,636230434421925917
87,636230434422096021
87,636230434422261339
87,636230434422431247
87,636230434422596569
87,636230434422761498
87,636230434422931778
87,636230434423096737
87,636230434423262021
87,636230434423432138
87,636230434423597255
87,636230434423767197
87,636230434423932327
87,636230434424097624
87,636230434424267548
87,636230434424432670
87,636230434424597783
87,636230434424767921
87,636230434424933026
87,636230434425103147
87,636230434425268456
87,636230434425433381
87,636230434425603502
87,636230434425768633
87,636230434425933921
87,636230434426104042
87,636230434426269164
87,636230434426439285
87,636230434426604227
87,636230434426769336
87,636230434426939469
87,636230434427104749
87,636230434427269833
87,636230434427439821
87,636230434427605105
87,636230434427775042
86,636230434427940164
86,636230434428120288
86,636230434428275402
86,636230434428440520
86,636230434428605637
86,636230434428775775
86,636230434428940880
86,636230434429110997
86,636230434429276131
86,636230434429441248
86,636230434429611536
86,636230434429776649
86,636230434429941591
86,636230434430111892
86,636230434430276843
86,636230434430446951
86,636230434430612068
86,636230434430777181
86,636230434430947520
86,636230434431112433
86,636230434431277721
86,636230434431447675
86,636230434431612955
86,636230434431782901
86,636230434431948194
86,636230434432113153
86,636230434432283248
86,636230434432448378
86,636230434432613680
86,636230434432783822
86,636230434432948944
86,636230434433119039
86,636230434433283977
86,636230434433449261
86,636230434433619198
86,636230434433784504
86,636230434433949625
86,636230434434119742
86,636230434434284706
86,636230434434454801
86,636230434434619914
86,636230434434785044
86,636230434434955246
86,636230434435120283
86,636230434435290391
86,636230434435455508
86,636230434435620626
86,636230434435790751
86,636230434435956044
86,636230434436120981
86,636230434436291115
86,636230434436456408
86,636230434436626341
86,636230434436791471
86,636230434436956764
86,636230434437126906
86,636230434437292028
86,636230434437456927
86,636230434437627236
86,636230434437792349
86,636230434437962291
86,636230434438127425
86,636230434438292530
86,636230434438462835
86,636230434438627948
86,636230434438792903
86,636230434438963028
86,636230434439128133
86,636230434439298241
86,636230434439463538
86,636230434439628493
86,636230434439798614
86,636230434439963714
86,636230434440129011
86,636230434440299132
86,636230434440464254
86,636230434440634191
86,636230434440799308
86,636230434440964443
86,636230434441134735
86,636230434441299664
86,636230434441469785
86,636230434441634915
86,636230434441800041
86,636230434441970141
86,636230434442135254
86,636230434442300371
86,636230434442470681
86,636230434442635807
86,636230434442800937
86,636230434442970852
86,636230434443135983
86,636230434443306108
86,636230434443471204
86,636230434443636343
86,636230434443806639
86,636230434443971752
86,636230434444141685
86,636230434444306982
86,636230434444472108
86,636230434444642037
86,636230434444807342
86,636230434444972280
86,636230434445142418
86,636230434445307514
86,636230434445477635
86,636230434445642953
86,636230434445807866
86,636230434445978111
86,636230434446143288
86,636230434446308410
86,636230434446478539
86,636230434446643644
86,636230434446813585
86,636230434446978707
86,636230434447143828
86,636230434447314069
86,636230434447479071
86,636230434447644390
86,636230434447814297
86,636230434447979427
86,636230434448149535
86,636230434448314657
86,636230434448479954
86,636230434448650079
86,636230434448815008
86,636230434448980314
86,636230434449150251
86,636230434449315377
86,636230434449485485
86,636230434449650808
86,636230434449815737
86,636230434449985841
86,636230434450150971
86,636230434450316260
86,636230434450486376
86,636230434450651498
86,636230434450821435
86,636230434450986570
86,636230434451151858
86,636230434451321795
86,636230434451486904
86,636230434451652214
86,636230434451822142
86,636230434451987264
86,636230434452157389
86,636230434452322716
86,636230434452487633
86,636230434452657929
86,636230434452822854
86,636230434452992979
86,636230434453158281
86,636230434453323214
86,636230434453493339
86,636230434453658465
86,636230434453823583
86,636230434453993879
86,636230434454158821
86,636230434454328929
86,636230434454494235
86,636230434454659352
86,636230434454829332
86,636230434454994586
86,636230434455159537
86,636230434455329825
86,636230434455494775
86,636230434455664879
86,636230434455830010
86,636230434456010125
86,636230434456165312
86,636230434456330541
86,636230434456495483
86,636230434456665591
86,636230434456830892
86,636230434457000829
86,636230434457165947
86,636230434457331060
86,636230434457501207
86,636230434457666303
86,636230434457831446
86,636230434458001725
86,636230434458166658
86,636230434458336779
86,636230434458502081
86,636230434458667198
86,636230434458837152
86,636230434459002248
86,636230434459167554
86,636230434459337504
86,636230434459502608
86,636230434459672734
86,636230434459837851
86,636230434460003148
86,636230434460173098
86,636230434460338215
86,636230434460503333
86,636230434460673629
86,636230434460838571
86,636230434461008679
86,636230434461173981
86,636230434461338914
86,636230434461509039
86,636230434461674349
86,636230434461839274
86,636230434462009391
86,636230434462174692
86,636230434462344629
86,636230434462509956
86,636230434462675078
86,636230434462845173
86,636230434463010286
86,636230434463175404
86,636230434463345521
85,636230434463510642
85,636230434463680579
85,636230434463845876
85,636230434464010831
85,636230434464181128
85,636230434464346048
85,636230434464511174
85,636230434464681308
85,636230434464846592
85,636230434465016529
85,636230434465181643
85,636230434465346781
85,636230434465516894
85,636230434465682186
85,636230434465847304
85,636230434466017241
85,636230434466182363
85,636230434466352479
85,636230434466517597
85,636230434466682924
85,636230434466853032
85,636230434467017965
85,636230434467183087
85,636230434467353371
85,636230434467518313
85,636230434467688532
85,636230434467853564
85,636230434468018669
85,636230434468188789
85,636230434468353915
85,636230434468524024
85,636230434468689158
85,636230434468854258
85,636230434469024375
85,636230434469189501
85,636230434469354614
85,636230434469524731
85,636230434469689861
85,636230434469854970
85,636230434470025095
85,636230434470190204
85,636230434470360347
85,636230434470525631
85,636230434470690569
85,636230434470860689
85,636230434471025803
85,636230434471195919
85,636230434471361225
85,636230434471526355
85,636230434471696292
85,636230434471861581
85,636230434472026698
85,636230434472196635
85,636230434472361937
85,636230434472531869
85,636230434472696991
85,636230434472862288
85,636230434473032443
85,636230434473197360
85,636230434473362469
85,636230434473532769
85,636230434473697724
85,636230434473867824
85,636230434474032945
85,636230434474198242
85,636230434474368372
85,636230434474533485
85,636230434474698410
85,636230434474868535
85,636230434475033841
85,636230434475203774
85,636230434475368904
85,636230434475534021
85,636230434475704318
85,636230434475869431
85,636230434476034360
85,636230434476204673
85,636230434476369787
85,636230434476539728
85,636230434476705029
85,636230434476869971
86,636230434477040285
86,636230434477205193
86,636230434477370502
86,636230434477540448
86,636230434477705574
86,636230434477875682
86,636230434478040808
86,636230434478206097
86,636230434478376222
86,636230434478541326
86,636230434478706269
86,636230434478876565
86,636230434479041503
86,636230434479211624
86,636230434479376946
86,636230434479542059
86,636230434479711979
86,636230434479877281
86,636230434480047218
86,636230434480212519
86,636230434480377654
86,636230434480547616
86,636230434480712695
86,636230434480877804
86,636230434481047934
86,636230434481213060
86,636230434481383168
86,636230434481548298
86,636230434481713587
86,636230434481883579
86,636230434482048671
86,636230434482213759
86,636230434482383897
86,636230434482549010
86,636230434482719114
86,636230434482884252
86,636230434483049545
86,636230434483219474
86,636230434483384775
86,636230434483549888
86,636230434483720018
86,636230434483884947
86,636230434484055064
86,636230434484220190
86,636230434484385487
86,636230434484555437
86,636230434484720721
86,636230434484885659
86,636230434485055775
86,636230434485220897
86,636230434485391022
86,636230434485556135
86,636230434485721266
86,636230434485891374
86,636230434486056709
86,636230434486221609
86,636230434486391913
86,636230434486556864
86,636230434486726972
86,636230434486892102
86,636230434487057387
86,636230434487227324
86,636230434487392454
86,636230434487557742
86,636230434487727885
86,636230434487892818
86,636230434488062918
86,636230434488228035
86,636230434488398186
86,636230434488563462
86,636230434488728575
86,636230434488893692
86,636230434489063809
86,636230434489228935
86,636230434489398868
86,636230434489564028
86,636230434489729107
86,636230434489899450
86,636230434490064525
86,636230434490229642
86,636230434490399763
87,636230434490564881
87,636230434490734818
87,636230434490900124
87,636230434491065237
87,636230434491235174
87,636230434491400304
87,636230434491570416
87,636230434491735530
87,636230434491900664
87,636230434492070781
87,636230434492236091
87,636230434492401191
87,636230434492571308
87,636230434492736425
87,636230434492906362
87,636230434493071663
87,636230434493236597
87,636230434493406718
87,636230434493572024
87,636230434493736957
87,636230434493907078
87,636230434494072208
87,636230434494242312
87,636230434494407430
87,636230434494572560
87,636230434494742681
87,636230434494907802
87,636230434495073087
87,636230434495243024
87,636230434495408154
87,636230434495578266
87,636230434495743568
87,636230434495908514
87,636230434496078635
87,636230434496243748
87,636230434496409045
87,636230434496578974
87,636230434496744271
87,636230434496914216
87,636230434497079347
87,636230434497244460
87,636230434497414760
87,636230434497579681
87,636230434497744807
87,636230434497914928
87,636230434498080225
87,636230434498250162
87,636230434498415280
87,636230434498580393
87,636230434498750535
87,636230434498915635
87,636230434499080766
87,636230434499251058
87,636230434499416008
87,636230434499586112
87,636230434499751418
87,636230434499916360
87,636230434500086656
87,636230434500251581
87,636230434500416720
87,636230434500587021
87,636230434500752129
87,636230434500922062
87,636230434501087364
87,636230434501252310
87,636230434501422414
87,636230434501587719
87,636230434501752841
87,636230434501922770
87,636230434502087921
87,636230434502258016
87,636230434502423322
87,636230434502588260
87,636230434502758385
87,636230434502923674
87,636230434503093606
87,636230434503258720
87,636230434503424025
87,636230434503594095
87,636230434503759259
87,636230434503924394
87,636230434504094335
87,636230434504259440
87,636230434504429556
87,636230434504594879
87,636230434504759971
87,636230434504929929
87,636230434505095047
87,636230434505260331
87,636230434505430268
87,636230434505595381
87,636230434505765511
87,636230434505930620
87,636230434506095754
87,636230434506266050
87,636230434506430984
87,636230434506596097
87,636230434506766398
87,636230434506931549
87,636230434507101469
87,636230434507266762
87,636230434507431884
87,636230434507601996
87,636230434507766930
87,636230434507932043
87,636230434508102356
87,636230434508267285
87,636230434508437402
87,636230434508602524
87,636230434508767654
87,636230434508937775
87,636230434509102893
87,636230434509267993
87,636230434509438118
87,636230434509603248
87,636230434509773356
87,636230434509938470
87,636230434510103677
87,636230434510273896
87,636230434510439014
88,636230434510603964
88,636230434510774261
88,636230434510939181
88,636230434511109311
88,636230434511274428
88,636230434511439546
88,636230434511609731
88,636230434511774964
88,636230434511940081
88,636230434512110039
88,636230434512275319
88,636230434512445256
88,636230434512610387
88,636230434512775671
88,636230434512945617
88,636230434513110914
88,636230434513280846
88,636230434513445989
88,636230434513611265
88,636230434513781211
88,636230434513946320
88,636230434514111629
88,636230434514281750
88,636230434514446680
88,636230434514611793
88,636230434514781922
88,636230434514947224
88,636230434515117161
88,636230434515282278
88,636230434515447404
88,636230434515617521
88,636230434515782634
88,636230434515947935
88,636230434516117868
88,636230434516283003
88,636230434516453102
88,636230434516618228
88,636230434516783363
88,636230434516953650
88,636230434517118610
88,636230434517288714
88,636230434517453822
88,636230434517618936
88,636230434517789061
87,636230434517954178
87,636230434518119304
87,636230434518289425
87,636230434518454530
87,636230434518624668
87,636230434518789781
87,636230434518955078
87,636230434519125195
87,636230434519290329
87,636230434519455425
87,636230434519625555
87,636230434519790475
87,636230434519960614
87,636230434520125718
87,636230434520290848
87,636230434520461149
87,636230434520626074
87,636230434520791204
87,636230434520961496
87,636230434521126443
87,636230434521296555
87,636230434521461852
87,636230434521626969
87,636230434521797099
87,636230434521962208
87,636230434522127158
87,636230434522297284
87,636230434522462568
87,636230434522632505
87,636230434522797631
87,636230434522962766
87,636230434523132861
87,636230434523297991
87,636230434523463108
87,636230434523633396
87,636230434523798514
87,636230434523968446
87,636230434524133748
87,636230434524298869
87,636230434524468802
87,636230434524634112
87,636230434524804045
87,636230434524969167
87,636230434525134301
87,636230434525304401
87,636230434525469736
87,636230434525634648
87,636230434525804752
87,636230434525970058
87,636230434526139991
87,636230434526305292
87,636230434526470414
87,636230434526640372
87,636230434526805652
87,636230434526970769
87,636230434527140711
87,636230434527305828
87,636230434527470971
87,636230434527641280
87,636230434527806389
87,636230434527976348
87,636230434528141418
87,636230434528306548
87,636230434528476870
87,636230434528641979
87,636230434528806891
87,636230434528977025
87,636230434529142134
87,636230434529312255
87,636230434529477556
87,636230434529642670
87,636230434529812808
87,636230434529977724
87,636230434530147845
87,636230434530313151
87,636230434530478093
87,636230434530648355
87,636230434530813322
87,636230434530978615
87,636230434531148745
87,636230434531313704
87,636230434531483795
87,636230434531648925
87,636230434531814026
87,636230434531984352
87,636230434532149272
87,636230434532314390
87,636230434532484596
87,636230434532649808
87,636230434532819741
87,636230434532984880
87,636230434533150164
87,636230434533320118
87,636230434533485235
87,636230434533650357
87,636230434533820457
87,636230434533985578
87,636230434534155699
87,636230434534320996
87,636230434534486118
87,636230434534656068
87,636230434534821173
87,636230434534991289
87,636230434535156407
87,636230434535321716
87,636230434535491645
87,636230434535656758
87,636230434535821880
87,636230434535992185
87,636230434536157302
87,636230434536327239
87,636230434536492357
87,636230434536657474
87,636230434536827604
87,636230434536992896
87,636230434537158018
87,636230434537328139
87,636230434537493085
87,636230434537663189
87,636230434537828324
87,636230434537993608
87,636230434538163631
87,636230434538328846
87,636230434538493959
87,636230434538664089
87,636230434538829202
87,636230434538999139
87,636230434539164436
87,636230434539329370
87,636230434539499636
87,636230434539664621
87,636230434539829747
87,636230434540000035
87,636230434540164964
87,636230434540335089
87,636230434540500391
87,636230434540665508
87,636230434540835543
87,636230434541000742
87,636230434541165859
87,636230434541335814
87,636230434541501102
87,636230434541671039
87,636230434541836341
87,636230434542001291
87,636230434542171583
87,636230434542336696
87,636230434542501647
87,636230434542671935
87,636230434542836864
87,636230434543007002
87,636230434543172291
87,636230434543337412
87,636230434543507345
87,636230434543672646
87,636230434543837584
87,636230434544007705
87,636230434544173002
87,636230434544342939
87,636230434544508052
87,636230434544673187
87,636230434544843312
87,636230434545008541
87,636230434545173534
87,636230434545343843
87,636230434545508952
87,636230434545678894
87,636230434545844195
87,636230434546009210
87,636230434546179245
87,636230434546344546
87,636230434546509493
87,636230434546679601
87,636230434546844740
87,636230434547014844
87,636230434547179970
87,636230434547345087
87,636230434547515379
87,636230434547680313
87,636230434547850433
87,636230434548015551
87,636230434548180668
87,636230434548350789
87,636230434548515911
87,636230434548681204
87,636230434548851175
87,636230434549016258
87,636230434549181568
87,636230434549351685
87,636230434549516623
87,636230434549686735
87,636230434549852041
87,636230434550016970
87,636230434550187112
87,636230434550352396
87,636230434550522334
87,636230434550687549
87,636230434550852585
87,636230434551022813
87,636230434551187824
87,636230434551353070
87,636230434551523041
87,636230434551688180
87,636230434551858279
87,636230434552023581
87,636230434552188707
87,636230434552358639
87,636230434552523787
87,636230434552688874
87,636230434552859179
87,636230434553024121
87,636230434553194234
87,636230434553359535
87,636230434553524481
87,636230434553694594
87,636230434553859891
87,636230434554029823
87,636230434554195133
87,636230434554360251
87,636230434554530184
87,636230434554695301
87,636230434554860607
87,636230434555030556
87,636230434555195841
87,636230434555360770
87,636230434555530921
87,636230434555696025
87,636230434555866134
87,636230434556031247
87,636230434556196364
87,636230434556366673
87,636230434556531795
87,636230434556696724
87,636230434556867025
87,636230434557031963
87,636230434557202096
87,636230434557367393
87,636230434557532511
87,636230434557702628
87,636230434557867741
87,636230434558032696
87,636230434558202799
87,636230434558368092
87,636230434558538042
87,636230434558703151
87,636230434558868285
87,636230434559038578
87,636230434559203699
87,636230434559368812
87,636230434559538741
87,636230434559704598
87,636230434559869899
87,636230434560039832
87,636230434560204975
87,636230434560375075
87,636230434560540205
87,636230434560705318
87,636230434560875435
87,636230434561040732
87,636230434561205661
87,636230434561375992
87,636230434561541109
87,636230434561711029
87,636230434561876322
87,636230434562041277
87,636230434562211402
87,636230434562376686
87,636230434562541620
87,636230434562711737
87,636230434562876863
87,636230434563046975
87,636230434563212281
87,636230434563377398
87,636230434563547519
87,636230434563712452
87,636230434563882569
87,636230434564047870
87,636230434564212984
87,636230434564382925
87,636230434564548222
88,636230434564713164
88,636230434564883281
88,636230434565048424
88,636230434565213533
88,636230434565383637
88,636230434565548754
88,636230434565718995
88,636230434565884181
88,636230434566049289
88,636230434566219231
88,636230434566384528
88,636230434566554473
88,636230434566719775
88,636230434566884717
88,636230434567054838
88,636230434567219942
88,636230434567390068
88,636230434567555181
88,636230434567720486
88,636230434567890436
88,636230434568055716
88,636230434568220838
88,636230434568390775
88,636230434568555914
88,636230434568721023
88,636230434568891310
88,636230434569056252
88,636230434569226373
88,636230434569391508
88,636230434569561642
88,636230434569726755
88,636230434569891860
88,636230434570057148
88,636230434570227260
88,636230434570392198
88,636230434570562336
88,636230434570727621
88,636230434570892567
88,636230434571062863
88,636230434571227814
88,636230434571392948
88,636230434571563039
88,636230434571728165
88,636230434571898299
88,636230434572063404
88,636230434572228517
88,636230434572398638
88,636230434572563926
88,636230434572729039
88,636230434572899165
88,636230434573064286
88,636230434573234232
88,636230434573399341
88,636230434573564561
88,636230434573734592
88,636230434573899902
88,636230434574069813
88,636230434574234927
88,636230434574400044
88,636230434574570174
88,636230434574735479
88,636230434574900417
88,636230434575070709
88,636230434575235642
88,636230434575400944
88,636230434575570881
88,636230434575736015
88,636230434575906158
88,636230434576071254
88,636230434576236568
88,636230434576406667
88,636230434576571605
88,636230434576741713
88,636230434576907023
88,636230434577072132
88,636230434577242074
89,636230434577407375
89,636230434577572308
89,636230434577742434
89,636230434577907547
89,636230434578077668
89,636230434578242811
89,636230434578408104
89,636230434578578135
89,636230434578743325
89,636230434578908459
89,636230434579078563
89,636230434579243672
89,636230434579413618
89,636230434579578910
89,636230434579743861
89,636230434579914115
89,636230434580079296
89,636230434580244409
89,636230434580414329
89,636230434580579656
89,636230434580749568
89,636230434580914694
89,636230434581079811
89,636230434581249919
89,636230434581415041
89,636230434581580334
89,636230434581750292
89,636230434581915397
89,636230434582085513
89,636230434582250836
89,636230434582415748
89,636230434582585886
89,636230434582751171
89,636230434582916104
89,636230434583086409
89,636230434583251347
89,636230434583421468
90,636230434583586761
90,636230434583751788
90,636230434583921836
90,636230434584086932
90,636230434584252067
90,636230434584422380
90,636230434584587293
90,636230434584757409
90,636230434584922531
90,636230434585087648
90,636230434585257949
90,636230434585423071
90,636230434585588188
90,636230434585758121
90,636230434585923247
90,636230434586093368
90,636230434586258494
90,636230434586423620
90,636230434586593929
90,636230434586758850
90,636230434586928958
90,636230434587094092
90,636230434587259193
90,636230434587429361
90,636230434587594457
90,636230434587759732
90,636230434587929849
90,636230434588094800
90,636230434588264908
90,636230434588430021
90,636230434588595356
90,636230434588765281
90,636230434588930381
90,636230434589095520
90,636230434589265803
90,636230434589430737
90,636230434589600875
90,636230434589766159
92,636230434589931272
92,636230434590101393
92,636230434590266339
92,636230434590431448
92,636230434590601582
92,636230434590766896
92,636230434590936808
92,636230434591102109
92,636230434591267043
92,636230434591437365
92,636230434591602465
92,636230434591767411
92,636230434591937703
92,636230434592102821
92,636230434592272779
92,636230434592437875
92,636230434592603001
92,636230434592773332
92,636230434592938227
92,636230434593103532
92,636230434593273486
92,636230434593438582
92,636230434593608708
92,636230434593773821
92,636230434593939122
92,636230434594109247
92,636230434594274185
92,636230434594439294
92,636230434594609432
92,636230434594774541
92,636230434594944671
92,636230434595109955
92,636230434595275076
92,636230434595445009
92,636230434595610311
92,636230434595775432
92,636230434595945365
93,636230434596110483
93,636230434596280608
93,636230434596445751
93,636230434596611026
93,636230434596781023
93,636230434596946081
93,636230434597111382
93,636230434597281512
93,636230434597446454
93,636230434597616562
93,636230434597781855
93,636230434597946810
93,636230434598116926
93,636230434598282040
93,636230434598447332
93,636230434598617269
93,636230434598782404
93,636230434598952512
93,636230434599117638
93,636230434599282760
93,636230434599453047
93,636230434599617981
93,636230434599788102
93,636230434599953232
93,636230434600118341
93,636230434600288458
93,636230434600453592
93,636230434600618688
93,636230434600788809
93,636230434600954115
93,636230434601124048
93,636230434601289169
93,636230434601454471
93,636230434601624596
93,636230434601789525
93,636230434601954831
93,636230434602124781
95,636230434602289881
95,636230434602460006
95,636230434602625124
95,636230434602790241
95,636230434602960555
95,636230434603125471
95,636230434603290593
95,636230434603460735
95,636230434603625848
95,636230434603795956
95,636230434603961258
95,636230434604126208
95,636230434604296496
95,636230434604461425
95,636230434604626731
95,636230434604796668
95,636230434604961969
95,636230434605131915
95,636230434605297019
95,636230434605462321
95,636230434605632271
95,636230434605797555
95,636230434605967496
95,636230434606272713
95,636230434606297923
95,636230434606467865
95,636230434606632974
95,636230434606798104
95,636230434606968221
95,636230434607133330
95,636230434607298447
95,636230434607468624
95,636230434607633698
95,636230434607803802
95,636230434607969108
95,636230434608134050
96,636230434608304162
96,636230434608469275
96,636230434608634581
96,636230434608804582
96,636230434608969640
96,636230434609139752
96,636230434609305058
96,636230434609470166
96,636230434609640125
96,636230434609805413
96,636230434609975346
96,636230434610140481
96,636230434610305765
96,636230434610475702
96,636230434610640837
96,636230434610805958
96,636230434610976250
96,636230434611141359
96,636230434611306314
96,636230434611476414
96,636230434611641527
96,636230434611811656
96,636230434611976787
96,636230434612142079
96,636230434612312025
96,636230434612477309
96,636230434612647246
96,636230434612812548
96,636230434612977507
96,636230434613147675
96,636230434613312719
96,636230434613478025
96,636230434613647954
96,636230434613813075
96,636230434613983196
96,636230434614148318
96,636230434614313452
96,636230434614483569
96,636230434614648858
96,636230434614813971
96,636230434614984092
96,636230434615149034
96,636230434615319146
96,636230434615484448
96,636230434615649586
96,636230434615819498
96,636230434615984799
96,636230434616149925
96,636230434616319858
96,636230434616484992
96,636230434616655101
96,636230434616820214
96,636230434616985331
96,636230434617155645
96,636230434617320574
96,636230434617485708
96,636230434617655808
96,636230434617821105
96,636230434617991046
96,636230434618156356
96,636230434618321285
96,636230434618491603
96,636230434618656703
96,636230434618821641
96,636230434618991938
96,636230434619156888
96,636230434619326996
96,636230434619492118
96,636230434619657240
96,636230434619827540
96,636230434619992470
96,636230434620157805
96,636230434620327917
96,636230434620493009
96,636230434620662946
96,636230434620828068
96,636230434620993198
96,636230434621163486
96,636230434621328428
96,636230434621498541
96,636230434621663684
96,636230434621828959
96,636230434621999093
96,636230434622164198
96,636230434622329238
96,636230434622499436
96,636230434622664387
96,636230434622834491
96,636230434622999796
96,636230434623164914
96,636230434623334846
96,636230434623500148
96,636230434623665184
96,636230434623835382
96,636230434624000503
96,636230434624170441
96,636230434624335768
96,636230434624500697
96,636230434624670792
96,636230434624835927
96,636230434625001219
96,636230434625171165
96,636230434625336453
96,636230434625506395
96,636230434625671692
96,636230434625836805
96,636230434626006746
96,636230434626172043
96,636230434626336998
96,636230434626507106
96,636230434626672224
96,636230434626842341
96,636230434627007514
96,636230434627172768
96,636230434627342752
96,636230434627507998
96,636230434627672935
96,636230434627843236
96,636230434628008358
96,636230434628178291
96,636230434628343408
96,636230434628508731
96,636230434628678873
96,636230434628843969
96,636230434629008885
96,636230434629179190
96,636230434629344132
96,636230434629514241
96,636230434629679375
96,636230434629844655
96,636230434630014618
96,636230434630179735
96,636230434630349843
96,636230434630514952
96,636230434630680159
96,636230434630850195
96,636230434631015308
96,636230434631180614
96,636230434631350735
96,636230434631515668
96,636230434631680961
96,636230434631851095
96,636230434632016032
96,636230434632186153
96,636230434632351258
96,636230434632516375
96,636230434632686509
96,636230434632851614
96,636230434633016736
96,636230434633187032
96,636230434633352154
96,636230434633522099
96,636230434633687396
96,636230434633852509
96,636230434634022464
96,636230434634187581
96,636230434634357689
96,636230434634522819
96,636230434634688125
96,636230434634858130
96,636230434635023171
96,636230434635188459
96,636230434635358585
96,636230434635523531
96,636230434635693643
96,636230434635858765
96,636230434636024058
96,636230434636193991
96,636230434636359117
96,636230434636524243
96,636230434636694359
96,636230434636859481
96,636230434637029585
96,636230434637194882
96,636230434637359871
96,636230434637529958
96,636230434637695088
96,636230434637860175
96,636230434638030480
96,636230434638195598
96,636230434638365539
96,636230434638530836
96,636230434638695787
96,636230434638865891
96,636230434639031218
96,636230434639196125
96,636230434639366430
96,636230434639531548
96,636230434639701485
96,636230434639866782
96,636230434640031904
96,636230434640202037
96,636230434640366962
96,636230434640532088
96,636230434640702214
96,636230434640867493
96,636230434641037439
96,636230434641202740
96,636230434641367858
96,636230434641537979
96,636230434641702925
96,636230434641868209
96,636230434642038146
96,636230434642203448
96,636230434642373389
97,636230434642538515
97,636230434642703637
97,636230434642873925
97,636230434643039063
97,636230434643203988
97,636230434643374096
97,636230434643539402
97,636230434643709331
97,636230434643874465
97,636230434644039749
97,636230434644209883
97,636230434644374988
97,636230434644540118
97,636230434644710072
97,636230434644875172
97,636230434645045285
97,636230434645210625
97,636230434645375533
