1,636230390059559777
1,636230390059729864
0,636230390059895174
0,636230390060060099
0,636230390060230220
0,636230390060395521
0,636230390060565471
0,636230390060730759
0,636230390060895877
0,636230390061065810
0,636230390061230949
0,636230390061396233
0,636230390061566354
0,636230390061731309
0,636230390061901412
0,636230390062066526
0,636230390062231823
0,636230390062401760
0,636230390062567065
0,636230390062732183
0,636230390062902299
0,636230390063067425
0,636230390063237358
0,636230390063402476
0,636230390063567777
0,636230390063737714
0,636230390063902849
0,636230390064067949
0,636230390064238083
0,636230390064403209
0,636230390064573308
0,636230390064738438
0,636230390064903543
0,636230390065073660
0,636230390065238970
0,636230390065404078
0,636230390065574037
0,636230390065739146
0,636230390065909263
0,636230390066074560
0,636230390066239493
0,636230390066409777
0,636230390066574967
0,636230390066739896
0,636230390066910017
0,636230390067075147
0,636230390067245260
0,636230390067410390
0,636230390067575507
0,636230390067745615
0,636230390067910733
0,636230390068080854
0,636230390068246172
0,636230390068411307
0,636230390068581205
0,636230390068746511
0,636230390068911457
0,636230390069081578
0,636230390069246696
0,636230390069416817
1,636230390069581934
1,636230390069747218
0,636230390069917160
0,636230390070082277
0,636230390070247574
0,636230390070417511
0,636230390070582842
0,636230390070752762
0,636230390070918055
0,636230390071083001
0,636230390071253105
0,636230390071418411
0,636230390071583524
0,636230390071753482
0,636230390071918579
0,636230390072088704
0,636230390072254009
0,636230390072419140
0,636230390072589055
0,636230390072754190
0,636230390072924298
0,636230390073089433
0,636230390073254725
0,636230390073424654
0,636230390073589771
0,636230390073755073
0,636230390073925035
0,636230390074090140
0,636230390074255257
0,636230390074425374
0,636230390074590491
0,636230390074760604
0,636230390074925935
0,636230390075090851
0,636230390075260955
0,636230390075426257
0,636230390075591207
0,636230390075761495
0,636230390075926446
0,636230390076096550
0,636230390076261855
0,636230390076426789
0,636230390076596905
0,636230390076762027
0,636230390076927328
0,636230390077097274
0,636230390077262562
0,636230390077432504
0,636230390077597801
0,636230390077762923
0,636230390077932864
0,636230390078098122
0,636230390078268111
0,636230390078433241
0,636230390078598329
0,636230390078768454
0,636230390078933580
0,636230390079098701
0,636230390079268827
0,636230390079434111
0,636230390079604048
0,636230390079769170
1,636230390079934462
1,636230390080104400
0,636230390080269705
0,636230390080434669
0,636230390080604944
0,636230390080769873
0,636230390080939994
0,636230390081105299
0,636230390081270383
0,636230390081440350
0,636230390081605471
0,636230390081770773
0,636230390081940727
0,636230390082105921
0,636230390082275948
0,636230390082441078
0,636230390082606238
0,636230390082776312
0,636230390082941434
0,636230390083106753
0,636230390083276655
0,636230390083441974
0,636230390083611898
0,636230390083777199
0,636230390083942129
0,636230390084112250
0,636230390084277555
0,636230390084447497
0,636230390084612618
0,636230390084777723
0,636230390084947865
0,636230390085112965
0,636230390085278083
0,636230390085448200
0,636230390085613505
0,636230390085778618
0,636230390085948560
0,636230390086113870
0,636230390086283794
0,636230390086449095
0,636230390086614046
0,636230390086784154
0,636230390086949284
0,636230390087114384
0,636230390087284694
0,636230390087449640
0,636230390087619744
0,636230390087784883
0,636230390087950167
0,636230390088120283
0,636230390088285221
0,636230390088450352
0,636230390088620648
0,636230390088785577
0,636230390088955694
0,636230390089120828
0,636230390089285950
0,636230390089456272
0,636230390089621188
1,636230390089791292
1,636230390089956423
0,636230390090121527
0,636230390090291644
0,636230390090456761
0,636230390090621883
0,636230390090792004
0,636230390090957301
0,636230390091127255
0,636230390091292539
0,636230390091457665
0,636230390091627594
0,636230390091792899
0,636230390091958013
0,636230390092127958
0,636230390092293076
0,636230390092458197
0,636230390092628489
0,636230390092793620
0,636230390092963574
0,636230390093128849
0,636230390093293783
0,636230390093464096
0,636230390093629205
0,636230390093799142
0,636230390093964273
0,636230390094129373
0,636230390094299588
0,636230390094464628
0,636230390094629913
0,636230390094799854
0,636230390094964971
0,636230390095135105
0,636230390095300214
0,636230390095465507
0,636230390095635444
0,636230390095800762
0,636230390095965692
0,636230390096135800
0,636230390096300938
0,636230390096471055
0,636230390096636168
0,636230390096801465
0,636230390096971398
0,636230390097136695
0,636230390097301817
0,636230390097471767
0,636230390097636871
0,636230390097806988
0,636230390097972294
0,636230390098137411
0,636230390098307344
0,636230390098472466
0,636230390098637596
0,636230390098807721
0,636230390098972838
0,636230390099142942
1,636230390099308068
1,636230390099473365
0,636230390099643302
0,636230390099808604
0,636230390099973743
0,636230390100143654
0,636230390100308771
0,636230390100478905
0,636230390100644189
0,636230390100809123
0,636230390100979248
0,636230390101144366
0,636230390101309483
0,636230390101479621
0,636230390101644730
0,636230390101814838
0,636230390101979956
0,636230390102145077
0,636230390102315378
0,636230390102480499
0,636230390102650437
0,636230390102815738
0,636230390102980855
0,636230390103150805
0,636230390103315927
0,636230390103481207
0,636230390103651161
0,636230390103816274
0,636230390103986387
0,636230390104151684
0,636230390104316822
0,636230390104486738
0,636230390104651873
0,636230390104816973
0,636230390104987107
0,636230390105152216
0,636230390105322349
0,636230390105487454
0,636230390105652576
0,636230390105822692
0,636230390105987994
0,636230390106152923
0,636230390106323228
0,636230390106488183
0,636230390106658299
0,636230390106823404
0,636230390106988539
0,636230390107158638
0,636230390107323760
0,636230390107488873
0,636230390107659011
0,636230390107824128
0,636230390107994245
0,636230390108159534
0,636230390108324489
0,636230390108494588
0,636230390108659919
0,636230390108824844
0,636230390108995132
0,636230390109160258
0,636230390109330182
0,636230390109495492
1,636230390109660601
1,636230390109830542
0,636230390109995694
0,636230390110160786
0,636230390110331082
0,636230390110496028
0,636230390110666137
0,636230390110831267
0,636230390110996555
0,636230390111166492
0,636230390111331794
0,636230390111496915
0,636230390111666844
0,636230390111832158
0,636230390112002087
0,636230390112167225
0,636230390112332321
0,636230390112502549
0,636230390112667573
0,636230390112832861
0,636230390113002978
0,636230390113168100
0,636230390113338037
0,636230390113503338
0,636230390113668455
0,636230390113838551
0,636230390114003689
0,636230390114168627
0,636230390114338753
0,636230390114503870
0,636230390114673982
0,636230390114839288
0,636230390115004239
0,636230390115174526
0,636230390115339639
0,636230390115504577
0,636230390115674882
0,636230390115839837
0,636230390116009937
0,636230390116175050
0,636230390116340167
0,636230390116510305
0,636230390116675423
0,636230390116840544
0,636230390117010644
0,636230390117175766
0,636230390117345887
0,636230390117511017
0,636230390117676134
0,636230390117846431
0,636230390118011364
0,636230390118181481
0,636230390118346598
0,636230390118511720
0,636230390118681841
0,636230390118846963
0,636230390119012260
0,636230390119182376
0,636230390119347323
0,636230390119517444
0,636230390119682548
0,636230390119847666
1,636230390120017782
1,636230390120183084
0,636230390120348201
0,636230390120518138
0,636230390120683260
0,636230390120853385
0,636230390121018503
0,636230390121183611
0,636230390121353732
0,636230390121518850
0,636230390121683967
0,636230390121854110
0,636230390122019223
0,636230390122189331
0,636230390122354461
0,636230390122519579
0,636230390122689682
0,636230390122854821
0,636230390123019917
0,636230390123190231
0,636230390123355181
0,636230390123525281
0,636230390123690398
0,636230390123855520
0,636230390124025803
0,636230390124190771
0,636230390124355884
0,636230390124525993
0,636230390124691127
0,636230390124861239
0,636230390125026532
0,636230390125191479
0,636230390125361771
0,636230390125526700
0,636230390125692010
0,636230390125861960
0,636230390126027240
0,636230390126197185
0,636230390126362478
0,636230390126527411
0,636230390126697554
0,636230390126862654
0,636230390127032775
0,636230390127197901
0,636230390127363198
0,636230390127533131
0,636230390127698458
0,636230390127863383
0,636230390128033671
0,636230390128198613
0,636230390128368729
0,636230390128533851
0,636230390128699140
0,636230390128869166
0,636230390129034203
0,636230390129199333
0,636230390129369450
1,636230390129534738
1,636230390129704688
0,636230390129869972
0,636230390130034910
0,636230390130205116
0,636230390130370161
0,636230390130535450
0,636230390130705387
0,636230390130870521
0,636230390131040625
0,636230390131205747
0,636230390131370873
0,636230390131540981
0,636230390131706287
0,636230390131871233
0,636230390132041521
0,636230390132206463
0,636230390132376575
0,636230390132541710
0,636230390132706819
0,636230390132876927
0,636230390133042237
0,636230390133207345
0,636230390133377295
0,636230390133542592
0,636230390133712529
0,636230390133877643
0,636230390134042965
0,636230390134212885
0,636230390134378182
0,636230390134543137
0,636230390134713250
0,636230390134878538
0,636230390135048475
0,636230390135213781
0,636230390135378894
0,636230390135548844
0,636230390135714132
0,636230390135884069
0,636230390136049183
0,636230390136214304
0,636230390136384425
0,636230390136549543
0,636230390136714673
0,636230390136884790
0,636230390137050082
0,636230390137220019
0,636230390137385137
0,636230390137550271
0,636230390137720375
0,636230390137885493
0,636230390138050606
0,636230390138220735
0,636230390138385848
0,636230390138555969
1,636230390138721271
1,636230390138886226
0,636230390139056509
0,636230390139221460
0,636230390139386560
0,636230390139556861
0,636230390139721828
0,636230390139891919
0,636230390140057037
0,636230390140222381
0,636230390140392275
0,636230390140557393
0,636230390140727509
0,636230390140892631
0,636230390141057941
0,636230390141227887
0,636230390141393166
0,636230390141558292
0,636230390141728221
0,636230390141893343
0,636230390142058469
0,636230390142228581
0,636230390142393908
0,636230390142563819
0,636230390142729116
0,636230390142894238
0,636230390143064175
0,636230390143229481
0,636230390143394590
0,636230390143564531
0,636230390143729648
0,636230390143899769
0,636230390144064900
0,636230390144230009
0,636230390144400125
0,636230390144565452
0,636230390144730377
0,636230390144900481
0,636230390145065787
0,636230390145235732
0,636230390145400858
0,636230390145566142
0,636230390145736092
0,636230390145901210
0,636230390146066327
0,636230390146236444
0,636230390146401557
0,636230390146571669
0,636230390146736971
0,636230390146902088
0,636230390147072021
0,636230390147237335
0,636230390147407259
0,636230390147572565
0,636230390147737511
0,636230390147907619
0,636230390148072745
0,636230390148237863
1,636230390148407971
1,636230390148573302
0,636230390148738206
0,636230390148908331
0,636230390149073568
0,636230390149243565
0,636230390149408700
0,636230390149573804
0,636230390149744062
0,636230390149909047
0,636230390150079176
0,636230390150244285
0,636230390150409420
0,636230390150579515
0,636230390150744842
0,636230390150909771
0,636230390151079884
0,636230390151245014
0,636230390151410123
0,636230390151580235
0,636230390151748385
0,636230390151915919
0,636230390152081686
0,636230390152249083
0,636230390152415094
0,636230390152583342
0,636230390152750324
0,636230390152915471
0,636230390153082175
0,636230390153249534
0,636230390153415964
0,636230390153585114
0,636230390153754038
0,636230390153919309
0,636230390154084418
0,636230390154251597
0,636230390154418112
0,636230390154585300
0,636230390154754916
0,636230390154921457
0,636230390155084556
0,636230390155256148
0,636230390155418944
0,636230390155586922
0,636230390155756658
0,636230390155923858
0,636230390156090306
0,636230390156257916
0,636230390156424308
0,636230390156590041
0,636230390156756301
0,636230390156923355
0,636230390157093083
0,636230390157258196
0,636230390157423318
0,636230390157593434
0,636230390157758556
0,636230390157923686
0,636230390158090048
1,636230390158260101
1,636230390158426895
0,636230390158592187
0,636230390158762142
0,636230390158927251
0,636230390159097136
0,636230390159262472
0,636230390159431477
0,636230390159597381
0,636230390159764303
0,636230390159931319
0,636230390160096603
0,636230390160261554
0,636230390160431838
0,636230390160596775
0,636230390160766892
0,636230390160932018
0,636230390161097131
0,636230390161267342
0,636230390161432378
0,636230390161597679
0,636230390161767621
0,636230390161932905
0,636230390162102842
0,636230390162268139
0,636230390162433094
0,636230390162603326
0,636230390162768337
0,636230390162933629
0,636230390163103738
0,636230390163268855
0,636230390163438792
0,636230390163604128
0,636230390163769211
0,636230390163939144
0,636230390164104453
0,636230390164269387
0,636230390164439688
0,636230390164604642
0,636230390164774742
0,636230390164939868
0,636230390165104990
0,636230390165275111
0,636230390165440215
0,636230390165605333
0,636230390165775454
0,636230390165940571
0,636230390166110692
0,636230390166275809
0,636230390166441115
0,636230390166611061
0,636230390166776358
0,636230390166946291
0,636230390167111412
0,636230390167276525
0,636230390167446638
0,636230390167611755
0,636230390167776890
1,636230390167947203
1,636230390168112124
0,636230390168282241
0,636230390168447538
0,636230390168612492
0,636230390168782592
0,636230390168947898
0,636230390169112840
0,636230390169282965
0,636230390169448091
0,636230390169618186
0,636230390169783304
0,636230390169948643
0,636230390170118572
0,636230390170283681
0,636230390170448790
0,636230390170619082
0,636230390170784165
0,636230390170954136
0,636230390171119267
0,636230390171284388
0,636230390171454578
0,636230390171619798
0,636230390171784731
0,636230390171955057
0,636230390172120149
0,636230390172290086
0,636230390172455392
0,636230390172620505
0,636230390172790442
0,636230390172955564
0,636230390173120694
0,636230390173290815
0,636230390173455928
0,636230390173626036
0,636230390173791154
0,636230390173956481
0,636230390174126585
0,636230390174291514
0,636230390174456627
0,636230390174626928
0,636230390174792049
0,636230390174961986
0,636230390175127108
0,636230390175292234
0,636230390175462342
0,636230390175627648
1,636230390175792774
1,636230390175962903
0,636230390176127820
0,636230390176297949
0,636230390176463071
0,636230390176628355
0,636230390176798288
0,636230390176963589
0,636230390177133531
0,636230390177298648
0,636230390177463774
0,636230390177633895
0,636230390177799183
0,636230390177964331
0,636230390178134255
0,636230390178299360
0,636230390178469493
0,636230390178634602
0,636230390178799899
0,636230390178969905
0,636230390179134954
0,636230390179300259
0,636230390179470376
0,636230390179635305
0,636230390179805435
0,636230390179970753
0,636230390180135665
0,636230390180305782
0,636230390180471088
0,636230390180636205
0,636230390180806142
0,636230390180971264
0,636230390181141381
0,636230390181306515
0,636230390181471611
0,636230390181641741
0,636230390181807038
0,636230390181972155
0,636230390182142092
0,636230390182307222
1,636230390182477331
1,636230390182642448
0,636230390182807565
0,636230390182977686
0,636230390183142988
0,636230390183307947
0,636230390183478226
0,636230390183643172
0,636230390183813289
0,636230390183978586
0,636230390184143528
0,636230390184313645
0,636230390184478762
0,636230390184643888
0,636230390184813992
0,636230390184979127
0,636230390185149248
0,636230390185314348
0,636230390185479465
0,636230390185649770
0,636230390185814892
0,636230390185979825
0,636230390186149955
0,636230390186315064
0,636230390186485181
0,636230390186650298
0,636230390186815428
0,636230390186985536
0,636230390187150654
0,636230390187320779
0,636230390187486072
0,636230390187651194
0,636230390187821131
0,636230390187986252
0,636230390188151374
0,636230390188321508
0,636230390188486608
0,636230390188656725
0,636230390188821842
0,636230390188986977
0,636230390189157081
0,636230390189322215
1,636230390189487333
1,636230390189657458
0,636230390189822554
0,636230390189992675
0,636230390190157797
0,636230390190323094
0,636230390190493031
0,636230390190658161
0,636230390190823283
0,636230390190993391
0,636230390191158504
0,636230390191328625
0,636230390191493755
0,636230390191659039
0,636230390191828981
0,636230390191994111
0,636230390192159220
0,636230390192329349
0,636230390192494642
0,636230390192664588
0,636230390192829902
0,636230390192994989
0,636230390193164931
0,636230390193330048
0,636230390193495161
0,636230390193665470
0,636230390193830417
0,636230390194000542
0,636230390194165651
0,636230390194330772
0,636230390194500876
0,636230390194665994
0,636230390194831299
0,636230390195001236
0,636230390195166367
0,636230390195336488
0,636230390195501592
0,636230390195666731
0,636230390195836831
0,636230390196001952
0,636230390196167065
0,636230390196337195
0,636230390196502488
0,636230390196672425
0,636230390196837538
0,636230390197002677
0,636230390197172836
0,636230390197338082
0,636230390197503015
0,636230390197673132
0,636230390197838280
0,636230390198008375
0,636230390198173505
0,636230390198338794
0,636230390198508739
0,636230390198673861
1,636230390198838978
1,636230390199009099
0,636230390199174217
0,636230390199344325
0,636230390199509635
0,636230390199674748
0,636230390199844676
0,636230390200009978
0,636230390200179919
0,636230390200345049
0,636230390200510338
0,636230390200680279
0,636230390200845405
0,636230390201010523
0,636230390201180644
0,636230390201345761
0,636230390201510870
0,636230390201681175
0,636230390201846108
0,636230390202016225
0,636230390202181355
0,636230390202346460
0,636230390202516581
0,636230390202681698
0,636230390202851832
0,636230390203017120
0,636230390203182071
0,636230390203352175
0,636230390203517309
0,636230390203687418
0,636230390203852544
0,636230390204017661
0,636230390204187782
0,636230390204353075
0,636230390204518017
0,636230390204688125
0,636230390204853422
0,636230390205018360
0,636230390205188481
0,636230390205353786
0,636230390205523758
0,636230390205688854
0,636230390205853950
0,636230390206024071
0,636230390206189205
0,636230390206354310
0,636230390206524615
0,636230390206689565
0,636230390206859669
0,636230390207024787
0,636230390207189917
0,636230390207360021
0,636230390207525142
0,636230390207690277
0,636230390207860376
0,636230390208025678
0,636230390208195619
1,636230390208360737
1,636230390208526042
0,636230390208695975
0,636230390208861092
0,636230390209026402
0,636230390209196348
0,636230390209361632
0,636230390209531573
0,636230390209696892
0,636230390209862009
0,636230390210031933
0,636230390210197055
0,636230390210367163
0,636230390210532294
0,636230390210697582
0,636230390210867519
0,636230390211032641
0,636230390211197763
0,636230390211368059
0,636230390211533181
0,636230390211698110
0,636230390211868427
0,636230390212033536
0,636230390212203469
0,636230390212368766
0,636230390212533717
0,636230390212704129
0,636230390212869276
0,636230390213034398
0,636230390213204514
0,636230390213369803
0,636230390213539744
0,636230390213705037
0,636230390213870154
0,636230390214040091
0,636230390214205393
0,636230390214370510
0,636230390214540452
0,636230390214705582
0,636230390214875690
0,636230390215040995
0,636230390215205925
0,636230390215376071
0,636230390215541159
0,636230390215706281
0,636230390215876414
0,636230390216041699
0,636230390216211636
0,636230390216376937
0,636230390216541875
0,636230390216712073
0,636230390216877267
0,636230390217047230
0,636230390217212535
0,636230390217377465
1,636230390217547590
1,636230390217712707
0,636230390217877838
0,636230390218047941
0,636230390218213256
0,636230390218378198
0,636230390218548490
0,636230390218713436
0,636230390218883540
0,636230390219048662
0,636230390219213788
0,636230390219383891
0,636230390219549009
0,636230390219719134
0,636230390219884260
0,636230390220049369
0,636230390220219490
0,636230390220384603
0,636230390220549969
0,636230390220719901
0,636230390220885203
0,636230390221055140
0,636230390221220253
0,636230390221385387
0,636230390221555496
0,636230390221720613
0,636230390221885726
0,636230390222056057
0,636230390222220969
0,636230390222391090
0,636230390222556391
0,636230390222721320
0,636230390222891441
0,636230390223056559
0,636230390223221693
0,636230390223391810
0,636230390223556919
0,636230390223727044
0,636230390223892170
0,636230390224057458
0,636230390224227391
0,636230390224392513
0,636230390224557648
0,636230390224727935
0,636230390224892882
0,636230390225063003
0,636230390225228291
0,636230390225393237
0,636230390225563363
0,636230390225728467
0,636230390225893589
0,636230390226063697
0,636230390226229028
1,636230390226398940
1,636230390226564241
0,636230390226729187
0,636230390226899291
0,636230390227064409
0,636230390227229543
0,636230390227399664
0,636230390227564978
0,636230390227734890
0,636230390227900011
0,636230390228065142
0,636230390228235374
0,636230390228400568
0,636230390228565664
0,636230390228735781
0,636230390228900723
0,636230390229070840
0,636230390229235974
0,636230390229401259
0,636230390229571358
0,636230390229736334
0,636230390229906438
0,636230390230071560
0,636230390230236677
0,636230390230406888
0,636230390230571903
0,636230390230737037
0,636230390230907188
0,636230390231072443
0,636230390231237569
0,636230390231407501
0,636230390231572615
0,636230390231742736
0,636230390231907866
0,636230390232072987
0,636230390232243100
0,636230390232408431
0,636230390232578334
0,636230390232743670
0,636230390232908582
0,636230390233078686
0,636230390233243812
0,636230390233409109
0,636230390233579046
0,636230390233744180
0,636230390233914280
0,636230390234079585
0,636230390234244532
0,636230390234414636
0,636230390234579757
0,636230390234744887
0,636230390234915013
0,636230390235080109
0,636230390235250234
1,636230390235415531
1,636230390235580469
0,636230390235750607
0,636230390235915891
0,636230390236081013
0,636230390236250941
0,636230390236416063
0,636230390236586184
0,636230390236751314
0,636230390236916607
0,636230390237086536
0,636230390237251837
0,636230390237416954
0,636230390237586913
0,636230390237752197
0,636230390237922134
0,636230390238087269
0,636230390238252373
0,636230390238422494
0,636230390238587624
0,636230390238757728
0,636230390238923051
0,636230390239087976
0,636230390239258084
0,636230390239423201
0,636230390239588332
0,636230390239758448
0,636230390239923557
0,636230390240093678
0,636230390240258800
0,636230390240423917
0,636230390240594034
0,636230390240759357
0,636230390240924483
0,636230390241094386
0,636230390241259687
0,636230390241429628
0,636230390241594930
0,636230390241759863
0,636230390241929984
0,636230390242095097
0,636230390242260232
0,636230390242430340
0,636230390242595474
0,636230390242765578
0,636230390242930918
0,636230390243096006
0,636230390243265930
0,636230390243431047
0,636230390243596357
0,636230390243766286
1,636230390243931420
1,636230390244096542
0,636230390244266830
0,636230390244431780
0,636230390244601880
0,636230390244767185
0,636230390244932333
0,636230390245102236
0,636230390245267537
0,636230390245437478
0,636230390245602609
0,636230390245767709
0,636230390245937830
0,636230390246102969
0,636230390246268069
0,636230390246438186
0,636230390246603324
0,636230390246773433
0,636230390246938725
0,636230390247103877
0,636230390247273780
0,636230390247438919
0,636230390247604019
0,636230390247774320
0,636230390247939437
0,636230390248109378
0,636230390248274680
0,636230390248439630
0,636230390248609734
0,636230390248774864
0,636230390248939965
0,636230390249110299
0,636230390249275207
0,636230390249445341
0,636230390249610467
0,636230390249775563
0,636230390249945680
0,636230390250110797
0,636230390250276099
0,636230390250446040
0,636230390250611341
0,636230390250781278
0,636230390250946400
0,636230390251111697
0,636230390251281647
0,636230390251446961
0,636230390251612074
0,636230390251781990
0,636230390251947124
0,636230390252117224
0,636230390252282534
1,636230390252447651
1,636230390252617772
0,636230390252782719
0,636230390252947832
0,636230390253117949
0,636230390253283057
0,636230390253453178
0,636230390253618480
0,636230390253783409
0,636230390253953534
0,636230390254118831
0,636230390254283949
0,636230390254453907
0,636230390254619024
0,636230390254789175
0,636230390254954250
0,636230390255119389
0,636230390255289664
0,636230390255454602
0,636230390255624723
0,636230390255790032
0,636230390255955137
0,636230390256125147
0,636230390256290209
0,636230390256455313
0,636230390256625618
0,636230390256790552
0,636230390256960698
0,636230390257125807
0,636230390257290929
0,636230390257461028
0,636230390257626146
0,636230390257791280
0,636230390257961594
0,636230390258126497
0,636230390258296635
0,636230390258461740
0,636230390258627041
0,636230390258796974
0,636230390258962288
0,636230390259127217
0,636230390259297518
0,636230390259462447
0,636230390259632585
0,636230390259797895
0,636230390259962820
0,636230390260132924
0,636230390260298059
0,636230390260463159
0,636230390260633468
0,636230390260798586
0,636230390260968523
1,636230390261133640
1,636230390261298762
0,636230390261468874
0,636230390261634175
0,636230390261799297
0,636230390261969435
0,636230390262134347
0,636230390262304473
0,636230390262469774
0,636230390262634896
0,636230390262804824
0,636230390262970130
0,636230390263135247
0,636230390263305197
0,636230390263470490
0,636230390263640418
0,636230390263805553
0,636230390263970871
0,636230390264140787
0,636230390264306080
0,636230390264471013
0,636230390264641318
0,636230390264806431
0,636230390264976373
0,636230390265141682
0,636230390265306603
0,636230390265476724
0,636230390265641859
0,636230390265806963
0,636230390265977084
0,636230390266142214
0,636230390266312318
0,636230390266477624
0,636230390266642575
0,636230390266812696
0,636230390266977796
0,636230390267142926
0,636230390267313214
0,636230390267478327
0,636230390267648273
0,636230390267813570
0,636230390267978503
0,636230390268148812
0,636230390268313930
0,636230390268478876
0,636230390268649172
0,636230390268814286
0,636230390268984223
0,636230390269149340
0,636230390269314475
0,636230390269484591
0,636230390269649875
0,636230390269819817
0,636230390269984947
1,636230390270150056
1,636230390270320168
0,636230390270485303
0,636230390270650407
0,636230390270820717
0,636230390270985659
0,636230390271155780
0,636230390271320884
0,636230390271486015
0,636230390271656144
0,636230390271821257
0,636230390271986362
0,636230390272156478
0,636230390272321776
0,636230390272491713
0,636230390272657018
0,636230390272821965
0,636230390272992073
0,636230390273157280
0,636230390273327311
0,636230390273492424
0,636230390273657730
0,636230390273827667
0,636230390273992793
0,636230390274157940
0,636230390274328023
0,636230390274493149
0,636230390274658270
0,636230390274828374
0,636230390274993496
0,636230390275163617
0,636230390275328756
0,636230390275493865
0,636230390275663973
0,636230390275829090
0,636230390275994203
0,636230390276164346
0,636230390276329463
0,636230390276499563
0,636230390276664898
0,636230390276829990
0,636230390277000111
0,636230390277165220
0,636230390277330158
0,636230390277500475
0,636230390277665576
0,636230390277835513
0,636230390278000818
0,636230390278165940
0,636230390278336057
0,636230390278500990
0,636230390278671115
0,636230390278836412
1,636230390279001359
1,636230390279171463
0,636230390279336764
0,636230390279501881
0,636230390279671836
0,636230390279837124
0,636230390280007061
0,636230390280172179
0,636230390280337309
0,636230390280507438
0,636230390280672722
0,636230390280837647
0,636230390281007790
0,636230390281172907
0,636230390281343011
0,636230390281508141
0,636230390281673242
0,636230390281843435
0,636230390282008497
0,636230390282173602
0,636230390282343740
0,636230390282508844
0,636230390282678978
0,636230390282844262
0,636230390283009209
0,636230390283179317
0,636230390283344618
0,636230390283509565
0,636230390283679673
0,636230390283844790
0,636230390284014928
0,636230390284180024
0,636230390284345326
0,636230390284515263
0,636230390284680389
0,636230390284845502
0,636230390285015618
0,636230390285180740
0,636230390285350861
0,636230390285516162
0,636230390285681143
0,636230390285851213
0,636230390286016330
0,636230390286181452
0,636230390286351573
0,636230390286516870
0,636230390286686807
0,636230390286851937
0,636230390287017046
0,636230390287187184
0,636230390287352284
0,636230390287517402
1,636230390287687536
1,636230390287852657
0,636230390288022761
0,636230390288187874
0,636230390288353176
0,636230390288523117
0,636230390288688239
0,636230390288858355
0,636230390289023490
0,636230390289188607
0,636230390289358707
0,636230390289523824
0,636230390289688959
0,636230390289859084
0,636230390290024180
0,636230390290194305
0,636230390290359607
0,636230390290524724
0,636230390290694670
0,636230390290859783
0,636230390291024896
0,636230390291195197
0,636230390291360318
0,636230390291530264
0,636230390291695552
0,636230390291860674
0,636230390292030710
0,636230390292195724
0,636230390292361034
0,636230390292530980
0,636230390292696084
0,636230390292866201
0,636230390293031323
0,636230390293196453
0,636230390293366557
0,636230390293531674
0,636230390293696980
0,636230390293867101
0,636230390294032218
0,636230390294202164
0,636230390294367273
0,636230390294532583
0,636230390294702507
0,636230390294867646
0,636230390295032742
0,636230390295203055
0,636230390295368168
0,636230390295538105
0,636230390295703437
0,636230390295868349
0,636230390296038457
0,636230390296203758
0,636230390296368696
0,636230390296538997
0,636230390296704123
0,636230390296874055
0,636230390297039352
1,636230390297204478
1,636230390297374407
0,636230390297539554
0,636230390297709650
0,636230390297874767
0,636230390298039897
0,636230390298210005
0,636230390298375119
0,636230390298540257
0,636230390298710391
0,636230390298875658
0,636230390299040596
0,636230390299210717
0,636230390299375834
0,636230390299545964
0,636230390299711073
0,636230390299876195
0,636230390300046508
0,636230390300211433
0,636230390300376563
0,636230390300546684
0,636230390300711968
0,636230390300881905
0,636230390301047040
0,636230390301212140
0,636230390301382261
0,636230390301547413
0,636230390301717500
0,636230390301882613
0,636230390302047743
0,636230390302217855
0,636230390302382994
0,636230390302548274
0,636230390302718228
0,636230390302883513
0,636230390303048626
0,636230390303218563
0,636230390303383702
0,636230390303553801
0,636230390303718923
0,636230390303884045
0,636230390304054371
0,636230390304219292
0,636230390304389400
0,636230390304554705
0,636230390304719634
0,636230390304889755
0,636230390305054894
1,636230390305220174
1,636230390305390124
0,636230390305555242
0,636230390305725350
0,636230390305890480
0,636230390306055602
0,636230390306225701
0,636230390306390823
0,636230390306556154
0,636230390306726074
0,636230390306891192
0,636230390307061300
0,636230390307226434
0,636230390307391547
0,636230390307561655
0,636230390307726773
0,636230390307891903
0,636230390308062028
0,636230390308227214
0,636230390308397250
0,636230390308562551
0,636230390308727664
0,636230390308897605
0,636230390309062924
0,636230390309227853
0,636230390309398141
0,636230390309563087
0,636230390309733200
0,636230390309898330
0,636230390310063443
0,636230390310233667
0,636230390310398878
0,636230390310563996
0,636230390310733920
0,636230390310899050
0,636230390311069150
0,636230390311234280
0,636230390311399393
0,636230390311569501
0,636230390311734803
0,636230390311899920
0,636230390312069866
0,636230390312234979
0,636230390312405100
0,636230390312570230
0,636230390312735335
0,636230390312905639
0,636230390313070581
1,636230390313240694
1,636230390313405991
0,636230390313570942
0,636230390313741045
0,636230390313906351
0,636230390314071297
0,636230390314241418
0,636230390314406732
0,636230390314571640
0,636230390314741761
0,636230390314906887
0,636230390315076995
0,636230390315242113
0,636230390315407235
0,636230390315577373
0,636230390315742657
0,636230390315912594
0,636230390316077724
0,636230390316243013
0,636230390316412945
0,636230390316578067
0,636230390316743390
0,636230390316913515
0,636230390317078419
0,636230390317248544
0,636230390317413678
0,636230390317578839
0,636230390317748900
0,636230390317914034
0,636230390318079135
0,636230390318249260
0,636230390318414386
0,636230390318584511
0,636230390318749817
0,636230390318914746
0,636230390319084845
0,636230390319250151
0,636230390319415264
0,636230390319585218
0,636230390319750336
0,636230390319920444
0,636230390320085578
0,636230390320250683
0,636230390320420804
0,636230390320585930
0,636230390320751236
0,636230390320921361
0,636230390321086269
0,636230390321256394
1,636230390321421524
1,636230390321586646
0,636230390321756745
0,636230390321921880
0,636230390322087006
0,636230390322257106
0,636230390322422227
0,636230390322592348
0,636230390322757461
0,636230390322922784
0,636230390323092884
0,636230390323257813
0,636230390323422960
0,636230390323593068
0,636230390323758353
0,636230390323928294
0,636230390324093424
0,636230390324258713
0,636230390324428834
0,636230390324593780
0,636230390324763888
0,636230390324929219
0,636230390325094123
0,636230390325264240
0,636230390325429541
0,636230390325594663
0,636230390325764779
0,636230390325929730
0,636230390326099838
0,636230390326265140
0,636230390326430261
0,636230390326600232
0,636230390326765324
0,636230390326930651
0,636230390327100759
0,636230390327265672
0,636230390327435792
0,636230390327600906
0,636230390327766036
0,636230390327936238
0,636230390328101274
0,636230390328266558
0,636230390328436525
0,636230390328601617
0,636230390328771742
0,636230390328936851
0,636230390329101973
0,636230390329272094
1,636230390329437395
1,636230390329602513
0,636230390329772634
0,636230390329937764
0,636230390330107688
0,636230390330272810
0,636230390330438103
0,636230390330608040
0,636230390330773161
0,636230390330938287
0,636230390331108584
0,636230390331273697
0,636230390331443638
0,636230390331608760
0,636230390331773873
0,636230390331943994
0,636230390332109111
0,636230390332274229
0,636230390332444371
0,636230390332609467
0,636230390332779597
0,636230390332944714
0,636230390333109827
0,636230390333279940
0,636230390333445061
0,636230390333610183
0,636230390333780317
0,636230390333945417
0,636230390334115538
0,636230390334280703
0,636230390334445953
0,636230390334615915
0,636230390334781011
0,636230390334946146
0,636230390335116447
0,636230390335281380
0,636230390335451488
0,636230390335616790
0,636230390335781723
0,636230390335951925
0,636230390336116961
0,636230390336287082
0,636230390336452388
0,636230390336617334
0,636230390336787438
0,636230390336952569
0,636230390337117857
0,636230390337287811
0,636230390337452924
0,636230390337623032
0,636230390337788334
0,636230390337953289
0,636230390338123388
0,636230390338288540
0,636230390338453623
0,636230390338623740
0,636230390338788874
1,636230390338959004
1,636230390339124126
0,636230390339289230
0,636230390339459338
0,636230390339624477
0,636230390339789586
0,636230390339959908
0,636230390340125025
0,636230390340294932
0,636230390340460230
0,636230390340625351
0,636230390340795284
0,636230390340960585
0,636230390341125707
0,636230390341295648
0,636230390341460762
0,636230390341630900
0,636230390341796017
0,636230390341961139
0,636230390342131238
0,636230390342296356
0,636230390342461490
0,636230390342631774
0,636230390342796712
0,636230390342966828
0,636230390343131950
0,636230390343297251
0,636230390343467201
0,636230390343632511
0,636230390343797440
0,636230390343967561
0,636230390344132871
0,636230390344302783
0,636230390344467998
0,636230390344633034
0,636230390344803155
0,636230390344968251
0,636230390345133386
0,636230390345303678
0,636230390345468791
0,636230390345638733
0,636230390345803850
0,636230390345968967
0,636230390346139165
0,636230390346304210
0,636230390346469353
0,636230390346639444
0,636230390346804745
0,636230390346974683
0,636230390347139988
0,636230390347305101
0,636230390347475167
0,636230390347640190
0,636230390347805299
1,636230390347975407
1,636230390348140700
0,636230390348310633
0,636230390348475763
0,636230390348640867
0,636230390349026146
0,636230390349036161
0,636230390349146231
0,636230390349311357
0,636230390349476663
0,636230390349646664
0,636230390349811884
0,636230390349977001
0,636230390350146964
0,636230390350312073
0,636230390350482177
0,636230390350647316
0,636230390350812412
0,636230390350982533
0,636230390351147650
0,636230390351312789
0,636230390351482905
0,636230390351648023
0,636230390351818127
0,636230390351983283
0,636230390352148370
0,636230390352318483
0,636230390352483617
0,636230390352648940
0,636230390352819022
0,636230390352983956
0,636230390353154077
0,636230390353319194
0,636230390353484329
0,636230390353654454
0,636230390353819550
0,636230390353984667
0,636230390354154793
0,636230390354320094
0,636230390354490027
0,636230390354655161
0,636230390354820262
0,636230390354990378
0,636230390355155500
0,636230390355320810
0,636230390355490738
0,636230390355656048
0,636230390355825977
0,636230390355991111
0,636230390356156246
0,636230390356326516
0,636230390356491459
0,636230390356656572
0,636230390356826688
0,636230390356991990
0,636230390357161927
0,636230390357327232
0,636230390357492350
0,636230390357662424
0,636230390357827396
0,636230390357997521
0,636230390358162818
1,636230390358327803
1,636230390358497877
0,636230390358662994
0,636230390358828112
0,636230390358998425
0,636230390359163530
0,636230390359328485
0,636230390359498777
0,636230390359663723
0,636230390359833827
0,636230390359998940
0,636230390360164079
0,636230390360334187
0,636230390360499480
0,636230390360664422
0,636230390360834560
0,636230390360999669
0,636230390361169773
0,636230390361334920
0,636230390361500196
0,636230390361670150
0,636230390361835267
0,636230390362005371
0,636230390362170672
0,636230390362335614
0,636230390362505723
0,636230390362670844
0,636230390362835962
0,636230390363006083
0,636230390363171388
0,636230390363341321
0,636230390363506622
0,636230390363671573
0,636230390363841681
0,636230390364006982
0,636230390364171924
0,636230390364342217
0,636230390364507171
0,636230390364677271
0,636230390364842410
0,636230390365007690
0,636230390365177623
0,636230390365342744
0,636230390365507866
0,636230390365678162
0,636230390365843284
0,636230390366013221
0,636230390366178518
0,636230390366343640
0,636230390366513577
0,636230390366678720
0,636230390366843812
0,636230390367014112
1,636230390367179059
1,636230390367349171
0,636230390367514293
0,636230390367679423
0,636230390367849523
0,636230390368014661
0,636230390368179775
0,636230390368350067
0,636230390368515017
0,636230390368685121
0,636230390368850427
0,636230390369015356
0,636230390369185494
0,636230390369350782
0,636230390369520715
0,636230390369685850
0,636230390369850950
0,636230390370021067
0,636230390370186188
0,636230390370351490
0,636230390370521615
0,636230390370686544
0,636230390370856665
0,636230390371021787
0,636230390371186904
0,636230390371357021
0,636230390371522156
0,636230390371687260
0,636230390371857394
0,636230390372022507
0,636230390372192615
0,636230390372357912
0,636230390372523034
0,636230390372692971
0,636230390372858268
0,636230390373023227
0,636230390373193331
0,636230390373358628
0,636230390373523562
0,636230390373693862
0,636230390373858984
0,636230390374028934
0,636230390374194227
0,636230390374359340
0,636230390374529294
0,636230390374694578
1,636230390374864532
1,636230390375029825
0,636230390375194754
0,636230390375364867
0,636230390375530172
0,636230390375695119
0,636230390375865248
0,636230390376030340
0,636230390376200465
0,636230390376365583
0,636230390376530722
0,636230390376700821
0,636230390376865939
0,636230390377031056
0,636230390377201198
0,636230390377366483
0,636230390377536415
0,636230390377701550
0,636230390377866855
0,636230390378036771
0,636230390378201901
0,636230390378367186
0,636230390378537135
0,636230390378702257
0,636230390378872378
0,636230390379037483
0,636230390379202617
0,636230390379372717
0,636230390379537834
0,636230390379702956
0,636230390379873077
0,636230390380038190
0,636230390380208315
0,636230390380373441
0,636230390380538755
0,636230390380708667
0,636230390380873806
0,636230390381038927
0,636230390381209027
0,636230390381374144
0,636230390381544270
0,636230390381709417
0,636230390381879504
0,636230390382044681
0,636230390382209739
0,636230390382374860
1,636230390382545157
1,636230390382710107
0,636230390382880211
0,636230390383045333
0,636230390383210634
0,636230390383380567
0,636230390383545706
0,636230390383710836
0,636230390383880944
0,636230390384046057
0,636230390384216165
0,636230390384381287
0,636230390384546417
0,636230390384716521
0,636230390384881639
0,636230390385051760
0,636230390385216890
0,636230390385382011
0,636230390385552115
0,636230390385717340
0,636230390385882363
0,636230390386052471
0,636230390386217794
0,636230390386387710
0,636230390386553007
0,636230390386718124
0,636230390386888065
0,636230390387053196
0,636230390387218313
0,636230390387388447
0,636230390387553727
0,636230390387723668
0,636230390387888794
0,636230390388053899
0,636230390388224015
0,636230390388389150
0,636230390388554434
0,636230390388724388
0,636230390388889489
0,636230390389059622
0,636230390389224907
0,636230390389389862
0,636230390389559961
0,636230390389725083
0,636230390389890200
0,636230390390060325
0,636230390390225443
0,636230390390395560
0,636230390390560690
0,636230390390725974
0,636230390390895941
0,636230390391061217
0,636230390391226334
0,636230390391396271
0,636230390391561577
0,636230390391731505
0,636230390391896644
0,636230390392061744
0,636230390392231861
0,636230390392396983
1,636230390392562323
1,636230390392732221
0,636230390392897356
0,636230390393067460
0,636230390393232594
0,636230390393397703
0,636230390393567944
0,636230390393733117
0,636230390393898067
0,636230390394068359
0,636230390394233477
0,636230390394403422
0,636230390394568711
0,636230390394733850
0,636230390394903941
0,636230390395069062
0,636230390395234022
0,636230390395404305
0,636230390395569423
0,636230390395739360
0,636230390395904661
0,636230390396069599
0,636230390396239737
0,636230390396404833
0,636230390396569976
0,636230390396740093
0,636230390396905189
0,636230390397075305
0,636230390397240440
0,636230390397405540
0,636230390397575665
0,636230390397740787
0,636230390397910917
0,636230390398076038
0,636230390398241156
0,636230390398411260
0,636230390398576390
0,636230390398741507
0,636230390398911633
0,636230390399076746
0,636230390399246854
0,636230390399412151
0,636230390399577273
0,636230390399747210
0,636230390399912520
0,636230390400077444
0,636230390400247578
0,636230390400412691
0,636230390400582804
0,636230390400747947
0,636230390400913039
0,636230390401083160
0,636230390401248482
0,636230390401413394
0,636230390401583695
0,636230390401748834
0,636230390401918754
0,636230390402083867
0,636230390402249181
1,636230390402419105
1,636230390402584227
0,636230390402749340
0,636230390402919474
0,636230390403084596
0,636230390403254704
0,636230390403420001
0,636230390403584956
0,636230390403755064
0,636230390403920177
0,636230390404085307
0,636230390404255599
0,636230390404420533
0,636230390404590654
0,636230390404755771
0,636230390404921068
0,636230390405091010
0,636230390405256311
0,636230390405421262
0,636230390405591378
0,636230390405756667
0,636230390405926694
0,636230390406091721
0,636230390406257027
0,636230390406427144
0,636230390406592261
0,636230390406757212
0,636230390406927499
0,636230390407092446
0,636230390407262554
0,636230390407427671
0,636230390407592797
0,636230390407762905
0,636230390407928049
0,636230390408093149
0,636230390408263266
0,636230390408428379
0,636230390408598500
0,636230390408763621
0,636230390408928739
0,636230390409098860
0,636230390409263986
0,636230390409429099
0,636230390409599220
0,636230390409764346
0,636230390409934454
0,636230390410099593
0,636230390410264706
0,636230390410434814
0,636230390410599927
0,636230390410770048
0,636230390410935358
0,636230390411100296
0,636230390411270400
1,636230390411435534
1,636230390411600639
0,636230390411770768
0,636230390411935890
0,636230390412105998
0,636230390412271111
0,636230390412436233
0,636230390412606538
0,636230390412771664
0,636230390412936602
0,636230390413106710
0,636230390413271831
0,636230390413441948
0,636230390413607078
0,636230390413772363
0,636230390413942300
0,636230390414107417
0,636230390414277542
0,636230390414442848
0,636230390414607957
0,636230390414777898
0,636230390414943024
0,636230390415108317
0,636230390415278254
0,636230390415443551
0,636230390415608681
0,636230390415778789
0,636230390415943723
0,636230390416113857
0,636230390416279149
0,636230390416444096
0,636230390416614200
0,636230390416779501
0,636230390416944460
0,636230390417114744
0,636230390417279707
0,636230390417449824
0,636230390417615121
0,636230390417780046
0,636230390417950150
0,636230390418115271
0,636230390418280389
0,636230390418450523
0,636230390418615627
0,636230390418785748
0,636230390418950866
0,636230390419115983
0,636230390419286104
0,636230390419451226
0,636230390419616339
0,636230390419786460
0,636230390419951577
0,636230390420121698
0,636230390420286816
0,636230390420451933
0,636230390420622054
0,636230390420787176
0,636230390420957292
0,636230390421122418
1,636230390421287531
1,636230390421457648
0,636230390421622766
0,636230390421787883
0,636230390421958008
0,636230390422123130
0,636230390422293247
0,636230390422458381
0,636230390422623477
0,636230390422793598
0,636230390422958716
0,636230390423123833
0,636230390423293954
0,636230390423459071
0,636230390423629197
0,636230390423794310
0,636230390423959427
0,636230390424129552
0,636230390424294678
0,636230390424459796
0,636230390424629904
0,636230390424795021
0,636230390424965142
0,636230390425130260
0,636230390425295382
0,636230390425465498
0,636230390425630616
0,636230390425795729
0,636230390425965854
0,636230390426130971
0,636230390426301092
0,636230390426466214
0,636230390426631327
0,636230390426801448
0,636230390426966574
0,636230390427131683
0,636230390427301804
0,636230390427466926
0,636230390427637038
0,636230390427802164
0,636230390427967277
0,636230390428137398
0,636230390428302520
0,636230390428472637
0,636230390428637758
0,636230390428802884
0,636230390428972997
0,636230390429138114
0,636230390429303227
0,636230390429473348
0,636230390429638470
0,636230390429803583
0,636230390429973708
0,636230390430138821
0,636230390430308942
0,636230390430474060
0,636230390430639177
0,636230390430809298
0,636230390430974416
0,636230390431139537
1,636230390431309654
1,636230390431474767
0,636230390431644892
0,636230390431810027
0,636230390431975136
0,636230390432145248
0,636230390432310366
0,636230390432475492
0,636230390432645613
0,636230390432810734
0,636230390432980842
0,636230390433145964
0,636230390433311077
0,636230390433481203
0,636230390433646316
0,636230390433811433
0,636230390433981554
0,636230390434146671
0,636230390434316788
0,636230390434481918
0,636230390434647027
0,636230390434817165
0,636230390434982283
0,636230390435152387
0,636230390435317508
0,636230390435482617
0,636230390435652747
0,636230390435817860
0,636230390435982986
0,636230390436153098
0,636230390436318400
0,636230390436488337
0,636230390436653467
0,636230390436818584
0,636230390436988697
0,636230390437153810
0,636230390437319111
0,636230390437489232
0,636230390437654174
0,636230390437824287
0,636230390437989404
0,636230390438154517
0,636230390438324719
0,636230390438489777
0,636230390438654877
0,636230390438825186
0,636230390438990129
0,636230390439160241
0,636230390439325358
0,636230390439490489
0,636230390439660738
0,636230390439825718
0,636230390439990827
0,636230390440160961
0,636230390440326250
0,636230390440496187
0,636230390440661304
0,636230390440826434
1,636230390440996547
1,636230390441161660
0,636230390441326803
0,636230390441497082
0,636230390441662200
0,636230390441832141
0,636230390441997271
0,636230390442162367
0,636230390442332676
0,636230390442497802
0,636230390442662744
0,636230390442833028
0,636230390442997974
0,636230390443168082
0,636230390443333221
0,636230390443498322
0,636230390443668631
0,636230390443833564
0,636230390444003681
0,636230390444168811
0,636230390444334095
0,636230390444504032
0,636230390444669334
0,636230390444834451
0,636230390445004576
0,636230390445169514
0,636230390445339631
0,636230390445504761
0,636230390445669879
0,636230390445840017
0,636230390446005126
0,636230390446170405
0,636230390446340364
0,636230390446505477
0,636230390446675581
0,636230390446840715
0,636230390447005829
0,636230390447175932
0,636230390447341067
0,636230390447506355
0,636230390447676301
0,636230390447841598
0,636230390448011531
0,636230390448176648
0,636230390448341766
0,636230390448511882
0,636230390448677192
0,636230390448842310
0,636230390449012243
0,636230390449177360
0,636230390449347481
0,636230390449512778
0,636230390449677712
0,636230390449847832
0,636230390450012958
0,636230390450178072
1,636230390450348197
1,636230390450513310
0,636230390450683431
0,636230390450848557
0,636230390451013679
0,636230390451183787
0,636230390451348908
0,636230390451514022
0,636230390451684151
0,636230390451849264
0,636230390452019381
0,636230390452184498
0,636230390452349612
0,636230390452519737
0,636230390452684858
0,636230390452849976
0,636230390453020093
0,636230390453185210
0,636230390453355331
0,636230390453520457
0,636230390453685562
0,636230390453855691
0,636230390454020830
0,636230390454185934
0,636230390454356047
0,636230390454521173
0,636230390454691277
0,636230390454856591
0,636230390455021529
0,636230390455191821
0,636230390455356942
0,636230390455526875
0,636230390455692001
0,636230390455857119
0,636230390456027248
0,636230390456192361
0,636230390456357479
0,636230390456527600
0,636230390456692888
0,636230390456857822
0,636230390457027943
0,636230390457193060
0,636230390457363181
0,636230390457528303
0,636230390457693416
0,636230390457863537
0,636230390458028654
0,636230390458198775
0,636230390458363901
0,636230390458529010
0,636230390458699127
1,636230390458864248
1,636230390459029370
0,636230390459199487
0,636230390459364609
0,636230390459534721
0,636230390459699838
0,636230390459864960
0,636230390460035081
0,636230390460200198
0,636230390460365316
0,636230390460535437
0,636230390460700554
0,636230390460870680
0,636230390461035793
0,636230390461200910
0,636230390461371031
0,636230390461536148
0,636230390461701266
0,636230390461871387
0,636230390462036509
0,636230390462206625
0,636230390462371751
0,636230390462541872
0,636230390462706977
0,636230390462872107
0,636230390463037224
0,636230390463207337
0,636230390463372459
0,636230390463542575
0,636230390463707697
0,636230390463872810
0,636230390464042927
0,636230390464208048
0,636230390464373166
0,636230390464543287
0,636230390464708413
0,636230390464878525
0,636230390465043643
0,636230390465208760
0,636230390465378881
0,636230390465543998
0,636230390465709116
0,636230390465879237
0,636230390466044354
0,636230390466214475
0,636230390466379597
0,636230390466544714
0,636230390466714827
0,636230390466879948
0,636230390467045070
0,636230390467215191
0,636230390467380309
0,636230390467550425
1,636230390467715547
1,636230390467880660
0,636230390468050785
0,636230390468215899
0,636230390468386019
0,636230390468551145
0,636230390468716259
0,636230390468886371
0,636230390469051497
0,636230390469216614
0,636230390469386735
0,636230390469551857
0,636230390469721965
0,636230390469887091
0,636230390470052209
0,636230390470222325
0,636230390470387460
0,636230390470557564
0,636230390470722677
0,636230390470887803
0,636230390471057932
0,636230390471223045
0,636230390471388154
0,636230390471558271
0,636230390471723406
0,636230390471888510
0,636230390472058811
0,636230390472223761
0,636230390472393870
0,636230390472559171
0,636230390472724288
0,636230390472894221
0,636230390473059343
0,636230390473224464
0,636230390473394594
0,636230390473559707
0,636230390473729824
0,636230390473895125
0,636230390474060071
0,636230390474230171
0,636230390474395477
0,636230390474560598
0,636230390474730531
0,636230390474895837
0,636230390475065765
0,636230390475230904
0,636230390475396004
0,636230390475566125
0,636230390475731243
0,636230390475896356
1,636230390476066481
1,636230390476231599
0,636230390476401720
0,636230390476567029
0,636230390476731954
0,636230390476902229
0,636230390477067193
0,636230390477237314
0,636230390477402435
0,636230390477567553
0,636230390477737670
0,636230390477902787
0,636230390478067904
0,636230390478238209
0,636230390478403160
0,636230390478573264
0,636230390478738565
0,636230390478903687
0,636230390479073620
0,636230390479238754
0,636230390479403871
0,636230390479573971
0,636230390479739272
0,636230390479909214
0,636230390480074536
0,636230390480239449
0,636230390480409570
0,636230390480574867
0,636230390480739984
0,636230390480909921
0,636230390481075222
0,636230390481245164
0,636230390481410461
0,636230390481575416
0,636230390481745515
0,636230390481910641
0,636230390482075947
0,636230390482246081
0,636230390482410993
0,636230390482576106
0,636230390482746411
0,636230390482911537
0,636230390483081465
0,636230390483246775
0,636230390483411884
0,636230390483581842
0,636230390483747127
0,636230390483917064
0,636230390484082190
0,636230390484247299
0,636230390484417420
0,636230390484582742
0,636230390484747659
0,636230390484917784
0,636230390485082910
1,636230390485253014
1,636230390485418311
0,636230390485583437
0,636230390485753370
0,636230390485918667
0,636230390486083622
0,636230390486253734
0,636230390486419061
0,636230390486588964
0,636230390486754081
0,636230390486919378
0,636230390487089320
0,636230390487254450
0,636230390487419576
0,636230390487589688
0,636230390487754806
0,636230390487924914
0,636230390488090044
0,636230390488255337
0,636230390488425436
0,636230390488590601
0,636230390488760508
0,636230390488925809
0,636230390489090931
0,636230390489260864
0,636230390489425981
0,636230390489591111
0,636230390489761404
0,636230390489926517
0,636230390490091467
0,636230390490261588
0,636230390490426907
0,636230390490596814
0,636230390490762119
0,636230390490927049
0,636230390491097362
0,636230390491262300
0,636230390491432408
0,636230390491597538
0,636230390491762669
0,636230390491932785
0,636230390492097886
0,636230390492263011
0,636230390492433115
0,636230390492598459
0,636230390492768358
0,636230390492933471
0,636230390493098772
0,636230390493268710
0,636230390493434019
0,636230390493599137
0,636230390493769070
0,636230390493934208
1,636230390494104308
1,636230390494269430
0,636230390494434543
0,636230390494604664
0,636230390494769803
0,636230390494934894
0,636230390495105208
0,636230390495270133
0,636230390495440275
0,636230390495605388
0,636230390495770493
0,636230390495940610
0,636230390496105919
0,636230390496270857
0,636230390496440970
0,636230390496606284
0,636230390496776225
0,636230390496941514
0,636230390497106447
0,636230390497276726
0,636230390497441869
0,636230390497606983
0,636230390497777099
0,636230390497942058
0,636230390498112158
0,636230390498277280
0,636230390498442406
0,636230390498612510
0,636230390498777815
0,636230390498947752
0,636230390499112883
0,636230390499278180
0,636230390499448142
0,636230390499613225
0,636230390499778356
0,636230390499948460
0,636230390500113765
0,636230390500278716
0,636230390500448824
0,636230390500613950
0,636230390500784058
0,636230390500949385
0,636230390501114293
0,636230390501284410
0,636230390501449536
0,636230390501614649
0,636230390501784949
0,636230390501949904
0,636230390502120008
0,636230390502285143
0,636230390502452676
0,636230390502617597
0,636230390502787718
0,636230390502952844
0,636230390503118162
0,636230390503288074
0,636230390503453187
0,636230390503623312
1,636230390503788447
1,636230390503953547
0,636230390504123745
0,636230390504288785
0,636230390504454091
0,636230390504624024
0,636230390504789141
0,636230390504959262
0,636230390505124589
0,636230390505289681
0,636230390505459755
0,636230390505624744
0,636230390505789878
0,636230390505959987
0,636230390506125104
0,636230390506295212
0,636230390506460330
0,636230390506625473
0,636230390506795581
0,636230390506960869
0,636230390507125824
0,636230390507296112
0,636230390507461058
0,636230390507631162
0,636230390507796280
0,636230390507961581
0,636230390508131702
0,636230390508296648
0,636230390508461932
0,636230390508632058
0,636230390508797175
0,636230390508967108
0,636230390509132251
0,636230390509297535
0,636230390509467481
0,636230390509632598
0,636230390509802706
0,636230390509967837
0,636230390510133121
0,636230390510303071
0,636230390510468184
0,636230390510633293
0,636230390510803623
0,636230390510968715
0,636230390511138656
0,636230390511303778
0,636230390511468887
0,636230390511639021
0,636230390511804134
0,636230390511969247
0,636230390512139368
0,636230390512304665
0,636230390512474611
0,636230390512639720
0,636230390512804867
0,636230390512975043
0,636230390513140268
1,636230390513305197
1,636230390513475318
0,636230390513640431
0,636230390513810556
0,636230390513975858
0,636230390514140791
0,636230390514310912
0,636230390514476209
0,636230390514641147
0,636230390514811456
0,636230390514976569
0,636230390515146506
0,636230390515311808
0,636230390515476746
0,636230390515646862
0,636230390515812185
0,636230390515977281
0,636230390516147218
0,636230390516312519
0,636230390516482456
0,636230390516647591
0,636230390516812687
0,636230390516982812
0,636230390517148118
0,636230390517313051
0,636230390517483172
0,636230390517648285
0,636230390517818419
0,636230390517983524
0,636230390518148825
0,636230390518318775
0,636230390518483880
0,636230390518654001
0,636230390518819114
0,636230390518984235
0,636230390519154352
0,636230390519319658
0,636230390519484596
0,636230390519654738
0,636230390519819843
0,636230390519989951
0,636230390520155252
0,636230390520320203
0,636230390520490306
0,636230390520655603
0,636230390520820541
0,636230390520990850
0,636230390521155968
0,636230390521325901
0,636230390521491027
0,636230390521656161
0,636230390521826312
1,636230390521991378
1,636230390522156504
0,636230390522326612
0,636230390522491725
0,636230390522661859
0,636230390522826964
0,636230390522992098
0,636230390523162288
0,636230390523327320
0,636230390523492441
0,636230390523662567
0,636230390523827688
0,636230390523997814
0,636230390524163132
0,636230390524328036
0,636230390524498152
0,636230390524663454
0,636230390524828571
0,636230390524998696
0,636230390525163630
0,636230390525333751
0,636230390525498881
0,636230390525663981
0,636230390525834102
0,636230390525999408
0,636230390526164529
0,636230390526334462
0,636230390526499593
0,636230390526669701
0,636230390526835002
0,636230390526999948
0,636230390527170052
0,636230390527335358
0,636230390527500308
0,636230390527670592
0,636230390527835718
0,636230390528005651
0,636230390528170956
0,636230390528335886
0,636230390528506002
0,636230390528671308
0,636230390528836254
0,636230390529006550
0,636230390529171480
0,636230390529341601
0,636230390529506902
0,636230390529671848
0,636230390529841995
1,636230390530007262
1,636230390530172375
0,636230390530342496
0,636230390530507425
0,636230390530677555
0,636230390530842861
0,636230390531007803
0,636230390531178013
0,636230390531343208
0,636230390531508146
0,636230390531678446
0,636230390531843380
0,636230390532013501
0,636230390532178627
0,636230390532343753
0,636230390532513869
0,636230390532678995
0,636230390532844275
0,636230390533014217
0,636230390533179330
0,636230390533349451
0,636230390533514572
0,636230390533679686
0,636230390533849824
0,636230390534015112
0,636230390534180046
0,636230390534350167
0,636230390534515275
0,636230390534685401
0,636230390534850728
0,636230390535015636
0,636230390535185774
0,636230390535351058
0,636230390535520995
0,636230390535686112
0,636230390535851418
0,636230390536021351
0,636230390536186481
0,636230390536351590
0,636230390536521715
0,636230390536686845
0,636230390536856941
0,636230390537022242
0,636230390537187197
0,636230390537357296
0,636230390537522606
0,636230390537687553
0,636230390537857652
0,636230390538022787
0,636230390538192895
0,636230390538358196
0,636230390538523138
0,636230390538693264
0,636230390538858368
0,636230390539023490
0,636230390539193619
0,636230390539358912
0,636230390539528845
0,636230390539694151
1,636230390539859264
1,636230390540029197
0,636230390540194502
0,636230390540359637
0,636230390540529740
0,636230390540694678
0,636230390540864795
0,636230390541029917
0,636230390541195209
0,636230390541365147
0,636230390541530285
0,636230390541695574
0,636230390541865699
0,636230390542030628
0,636230390542200749
0,636230390542365862
0,636230390542530988
0,636230390542701101
0,636230390542866235
0,636230390543031340
0,636230390543201457
0,636230390543366578
0,636230390543536691
0,636230390543701830
0,636230390543866938
0,636230390544037047
0,636230390544202181
0,636230390544367303
0,636230390544537402
0,636230390544702708
0,636230390544872645
0,636230390545037797
0,636230390545202884
0,636230390545373215
0,636230390545538131
0,636230390545708252
0,636230390545873541
0,636230390546038662
0,636230390546208599
0,636230390546373730
1,636230390546539009
1,636230390546708947
0,636230390546874252
0,636230390547044189
0,636230390547209307
0,636230390547374428
0,636230390547544545
0,636230390547709667
0,636230390547874959
0,636230390548044914
0,636230390548210206
0,636230390548380139
0,636230390548545257
0,636230390548710378
0,636230390548880491
0,636230390549045805
0,636230390549210914
0,636230390549380859
0,636230390549545981
0,636230390549716089
0,636230390549881207
0,636230390550046333
0,636230390550216445
0,636230390550381562
0,636230390550546859
0,636230390550716814
0,636230390550881931
0,636230390551052039
0,636230390551217165
0,636230390551382274
0,636230390551552553
0,636230390551717718
0,636230390551882643
0,636230390552052747
0,636230390552218052
0,636230390552387989
0,636230390552553107
0,636230390552718404
0,636230390552888341
0,636230390553053458
0,636230390553218601
0,636230390553388709
0,636230390553553814
0,636230390553723939
0,636230390553889052
0,636230390554054187
0,636230390554224299
0,636230390554389430
0,636230390554559533
1,636230390554724835
1,636230390554889785
0,636230390555059885
0,636230390555225020
0,636230390555390150
0,636230390555560258
0,636230390555725358
0,636230390555895483
0,636230390556060605
0,636230390556225718
0,636230390556395839
0,636230390556561136
0,636230390556726095
0,636230390556896191
0,636230390557061330
0,636230390557231433
0,636230390557396572
0,636230390557561681
0,636230390557731789
0,636230390557896928
0,636230390558062020
0,636230390558232158
0,636230390558397280
0,636230390558567396
0,636230390558732689
0,636230390558897798
0,636230390559067735
0,636230390559232874
0,636230390559397987
0,636230390559568275
0,636230390559733221
0,636230390559903329
0,636230390560068635
0,636230390560233594
0,636230390560403689
0,636230390560568991
0,636230390560733937
0,636230390560904233
0,636230390561069180
0,636230390561239284
0,636230390561404397
0,636230390561569531
0,636230390561739639
0,636230390561904770
0,636230390562069870
0,636230390562239991
0,636230390562405108
0,636230390562575234
1,636230390562740535
1,636230390562905490
0,636230390563075585
0,636230390563240711
0,636230390563405837
0,636230390563575945
0,636230390563741063
0,636230390563911184
0,636230390564076305
0,636230390564241440
0,636230390564411535
0,636230390564576841
0,636230390564741791
0,636230390564911891
0,636230390565077196
0,636230390565247134
0,636230390565412431
0,636230390565577548
0,636230390565747524
0,636230390565912624
0,636230390566077733
0,636230390566248059
0,636230390566413168
0,636230390566583084
0,636230390566748201
0,636230390566913502
0,636230390567083525
0,636230390567248574
0,636230390567413862
0,636230390567583791
0,636230390567748913
0,636230390567919034
0,636230390568084155
0,636230390568249268
0,636230390568419556
0,636230390568584725
0,636230390568754628
0,636230390568919929
0,636230390569084884
0,636230390569254984
0,636230390569420114
0,636230390569585231
0,636230390569755356
0,636230390569920457
0,636230390570090582
0,636230390570255691
0,636230390570420808
0,636230390570590934
0,636230390570756256
0,636230390570921186
0,636230390571091302
0,636230390571256420
0,636230390571426528
1,636230390571591658
1,636230390571756946
0,636230390571926879
0,636230390572092001
0,636230390572257118
0,636230390572427248
0,636230390572592562
0,636230390572762491
0,636230390572927608
0,636230390573092713
0,636230390573262834
0,636230390573427951
0,636230390573593081
0,636230390573763373
0,636230390573928320
0,636230390574098428
0,636230390574263725
0,636230390574428667
0,636230390574598784
0,636230390574764085
0,636230390574929031
0,636230390575099135
0,636230390575264436
0,636230390575434399
0,636230390575599508
0,636230390575764797
0,636230390575934729
0,636230390576099851
0,636230390576265152
0,636230390576435102
0,636230390576600262
0,636230390576770328
0,636230390576935633
0,636230390577100751
0,636230390577270773
0,636230390577435989
0,636230390577600931
0,636230390577771219
0,636230390577936174
0,636230390578106282
0,636230390578271408
0,636230390578436530
0,636230390578606642
0,636230390578771760
0,636230390578937074
0,636230390579107216
0,636230390579272321
0,636230390579442241
0,636230390579607529
0,636230390579772647
0,636230390579942596
0,636230390580107889
0,636230390580272836
0,636230390580442939
1,636230390580608070
1,636230390580778178
0,636230390580943308
0,636230390581108408
0,636230390581278718
0,636230390581443647
0,636230390581613772
0,636230390581779090
0,636230390581944191
0,636230390582114124
0,636230390582279438
0,636230390582444564
0,636230390582614488
0,636230390582779622
0,636230390582949718
0,636230390583115049
0,636230390583279974
0,636230390583450078
0,636230390583615191
0,636230390583780326
0,636230390583950446
0,636230390584115547
0,636230390584285672
0,636230390584450969
0,636230390584615911
0,636230390584786032
0,636230390584951150
0,636230390585116447
0,636230390585286568
0,636230390585451698
0,636230390585621622
0,636230390585786757
0,636230390585956860
0,636230390586121978
0,636230390586287283
0,636230390586452213
0,636230390586622522
0,636230390586787468
0,636230390586957572
0,636230390587122702
0,636230390587287820
0,636230390587457928
0,636230390587623041
0,636230390587788347
0,636230390587958284
0,636230390588123414
0,636230390588293522
0,636230390588458819
0,636230390588623774
0,636230390588793959
0,636230390588958991
0,636230390589124297
0,636230390589294247
0,636230390589459556
0,636230390589629472
0,636230390589794590
1,636230390589959703
1,636230390590129828
0,636230390590294958
0,636230390590460247
0,636230390590630184
0,636230390590795485
0,636230390590965418
0,636230390591130561
0,636230390591295841
0,636230390591465992
0,636230390591630908
0,636230390591796013
0,636230390591966147
0,636230390592131264
0,636230390592301368
0,636230390592466673
0,636230390592631795
0,636230390592801741
0,636230390592966850
0,636230390593136966
0,636230390593302079
0,636230390593467381
0,636230390593637322
0,636230390593802623
0,636230390593967741
0,636230390594137691
0,636230390594302975
0,636230390594472916
0,636230390594638047
0,636230390594803168
0,636230390594973272
0,636230390595138390
0,636230390595303524
0,636230390595473628
0,636230390595638805
0,636230390595808866
0,636230390595973979
0,636230390596139118
0,636230390596309218
0,636230390596474523
0,636230390596639641
0,636230390596809574
0,636230390596974691
0,636230390597144816
0,636230390597309934
0,636230390597475068
0,636230390597645172
0,636230390597810473
0,636230390597975416
0,636230390598145716
0,636230390598310838
0,636230390598480766
0,636230390598646072
0,636230390598811010
0,636230390598981118
0,636230390599146423
0,636230390599311366
0,636230390599481487
1,636230390599646775
1,636230390599816716
0,636230390599982026
0,636230390600147131
0,636230390600317068
0,636230390600482190
0,636230390600647307
0,636230390600817612
0,636230390600982562
0,636230390601152666
0,636230390601317788
0,636230390601482901
0,636230390601653022
0,636230390601818328
0,636230390601983441
0,636230390602153391
0,636230390602318508
0,636230390602488621
0,636230390602653747
0,636230390602819031
0,636230390602988968
0,636230390603154269
0,636230390603319203
0,636230390603489341
0,636230390603654458
0,636230390603824575
0,636230390603989697
0,636230390604154801
0,636230390604324939
0,636230390604490223
0,636230390604660161
0,636230390604825295
0,636230390604990404
0,636230390605160521
0,636230390605325818
0,636230390605490948
0,636230390605660872
0,636230390605825985
0,636230390605996111
0,636230390606161232
0,636230390606326345
0,636230390606496462
0,636230390606661588
0,636230390606826710
0,636230390606996818
0,636230390607161944
0,636230390607332061
0,636230390607497191
0,636230390607662295
0,636230390607832416
0,636230390607997534
0,636230390608167655
0,636230390608332960
0,636230390608498074
1,636230390608668011
1,636230390608833312
0,636230390608998442
0,636230390609168362
0,636230390609333497
0,636230390609498606
0,636230390609668735
0,636230390609833857
0,636230390610003961
0,636230390610169266
0,636230390610334375
0,636230390610504312
0,636230390610669434
0,636230390610834568
0,636230390611004685
0,636230390611169802
0,636230390611339919
0,636230390611505208
0,636230390611670329
0,636230390611840301
0,636230390612005563
0,636230390612170506
0,636230390612340627
0,636230390612505757
0,636230390612675861
0,636230390612841166
0,636230390613006095
0,636230390613176216
0,636230390613341351
0,636230390613506511
0,636230390613676589
0,636230390613841702
0,636230390614011832
0,636230390614176937
0,636230390614342225
0,636230390614512166
0,636230390614677301
0,636230390614847405
0,636230390615012527
0,636230390615177635
0,636230390615347761
0,636230390615512891
0,636230390615677991
0,636230390615848116
0,636230390616013247
0,636230390616178356
0,636230390616348485
0,636230390616513590
0,636230390616683711
0,636230390616849012
0,636230390617014129
0,636230390617184079
0,636230390617349368
0,636230390617519318
0,636230390617684435
0,636230390617849724
0,636230390618019656
0,636230390618184787
1,636230390618350084
1,636230390618520012
0,636230390618685147
0,636230390618855255
0,636230390619020556
0,636230390619185490
0,636230390619355611
0,636230390619520921
0,636230390619685841
0,636230390619856146
0,636230390620021088
0,636230390620191205
0,636230390620356322
0,636230390620521624
0,636230390620691574
0,636230390620856862
0,636230390621021813
0,636230390621191916
0,636230390621357030
0,636230390621527159
0,636230390621692465
0,636230390621857574
0,636230390622027511
0,636230390622192812
0,636230390622357758
0,636230390622527866
0,636230390622692997
0,636230390622863105
0,636230390623028222
0,636230390623193524
0,636230390623363555
0,636230390623528591
0,636230390623693700
0,636230390623864000
0,636230390624029126
0,636230390624199051
0,636230390624364177
0,636230390624529290
0,636230390624699411
0,636230390624864532
0,636230390625034653
0,636230390625199784
0,636230390625364884
0,636230390625535005
0,636230390625700135
0,636230390625865424
0,636230390626035356
0,636230390626200478
0,636230390626365608
0,636230390626535905
0,636230390626700855
0,636230390626870959
0,636230390627036068
0,636230390627201305
0,636230390627371495
1,636230390627536432
1,636230390627701541
0,636230390627871855
0,636230390628036801
0,636230390628206905
0,636230390628372206
0,636230390628537157
0,636230390628707265
0,636230390628872374
0,636230390629042499
0,636230390629207612
0,636230390629372931
0,636230390629542855
0,636230390629708156
0,636230390629873269
0,636230390630043215
0,636230390630208512
0,636230390630378445
0,636230390630543579
0,636230390630708872
0,636230390630878869
0,636230390631043939
0,636230390631209057
0,636230390631379383
0,636230390631544351
0,636230390631714399
0,636230390631879700
0,636230390632044822
0,636230390632214751
0,636230390632380056
0,636230390632545003
0,636230390632715124
0,636230390632880245
0,636230390633050353
0,636230390633215479
0,636230390633380789
0,636230390633550701
0,636230390633716006
0,636230390633880953
0,636230390634051074
0,636230390634216174
0,636230390634386299
0,636230390634551434
0,636230390634716530
0,636230390634886655
0,636230390635051772
0,636230390635216894
0,636230390635387011
0,636230390635552351
0,636230390635722249
0,636230390635887550
0,636230390636052484
0,636230390636222601
0,636230390636387744
0,636230390636557843
0,636230390636722978
0,636230390636888095
0,636230390637058195
0,636230390637223500
1,636230390637388614
1,636230390637558564
0,636230390637723852
0,636230390637893793
0,636230390638058928
0,636230390638224216
0,636230390638394149
0,636230390638559262
0,636230390638724568
0,636230390638894689
0,636230390639059811
0,636230390639229743
0,636230390639394861
0,636230390639560162
0,636230390639730095
0,636230390639895430
0,636230390640060351
0,636230390640230635
0,636230390640395577
0,636230390640565689
0,636230390640730811
0,636230390640896009
0,636230390641066109
0,636230390641231162
0,636230390641396284
0,636230390641566422
0,636230390641731540
0,636230390641901656
0,636230390642066778
0,636230390642232066
0,636230390642402093
0,636230390642567134
0,636230390642732422
0,636230390642902543
0,636230390643067656
0,636230390643237606
0,636230390643402724
0,636230390643567833
0,636230390643737949
0,636230390643903079
0,636230390644068372
0,636230390644238318
0,636230390644403448
0,636230390644573543
0,636230390644738661
0,636230390644903975
0,636230390645073895
0,636230390645239029
0,636230390645404314
0,636230390645574268
0,636230390645739556
0,636230390645909511
1,636230390646074628
1,636230390646239741
0,636230390646409862
0,636230390646574984
0,636230390646740268
0,636230390646910222
0,636230390647075506
0,636230390647245443
0,636230390647410749
0,636230390647575683
0,636230390647745799
0,636230390647910929
0,636230390648076222
0,636230390648246172
0,636230390648411478
0,636230390648581393
0,636230390648746690
0,636230390648911816
0,636230390649081745
0,636230390649247051
0,636230390649412168
0,636230390649582161
0,636230390649747235
0,636230390649917343
0,636230390650082469
0,636230390650247587
0,636230390650417695
0,636230390650582817
0,636230390650747938
0,636230390650918055
0,636230390651083172
0,636230390651253289
0,636230390651418407
0,636230390651583533
0,636230390651753658
0,636230390651918775
0,636230390652083888
0,636230390652254014
0,636230390652419140
0,636230390652589243
0,636230390652754562
0,636230390652919658
0,636230390653089612
0,636230390653254730
0,636230390653424838
0,636230390653589968
0,636230390653755252
0,636230390653925193
0,636230390654090328
0,636230390654255441
0,636230390654425562
0,636230390654590671
0,636230390654760792
0,636230390654925905
0,636230390655091035
0,636230390655261139
0,636230390655426269
1,636230390655591374
1,636230390655761521
0,636230390655926801
0,636230390656096755
0,636230390656262043
0,636230390656426968
0,636230390656597094
0,636230390656762207
0,636230390656927328
0,636230390657097466
0,636230390657262562
0,636230390657432722
0,636230390657598019
0,636230390657762940
0,636230390657933073
0,636230390658098161
0,636230390658263462
0,636230390658433416
0,636230390658598538
0,636230390658768638
0,636230390658933960
0,636230390659098881
0,636230390659268989
0,636230390659434295
0,636230390659599412
0,636230390659769537
0,636230390659934471
0,636230390660104592
0,636230390660269718
0,636230390660434835
0,636230390660604944
0,636230390660770249
0,636230390660935362
0,636230390661105299
0,636230390661270639
0,636230390661440538
0,636230390661605835
0,636230390661770777
0,636230390661940906
0,636230390662106195
0,636230390662271312
0,636230390662441249
0,636230390662606371
0,636230390662776488
0,636230390662941614
0,636230390663106928
0,636230390663277032
0,636230390663441957
0,636230390663607091
0,636230390663777388
0,636230390663942338
0,636230390664112433
0,636230390664277555
0,636230390664442856
0,636230390664612977
0,636230390664777924
0,636230390664948036
0,636230390665113162
0,636230390665278284
0,636230390665448401
0,636230390665613501
0,636230390665778806
1,636230390665948761
1,636230390666113857
0,636230390666283986
0,636230390666449279
0,636230390666614238
0,636230390666784351
0,636230390666949464
0,636230390667114756
0,636230390667284694
0,636230390667450016
0,636230390667619932
0,636230390667785054
0,636230390667950184
0,636230390668120288
0,636230390668285508
0,636230390668450523
0,636230390668620644
0,636230390668785761
0,636230390668955891
0,636230390669121004
0,636230390669286130
0,636230390669456234
0,636230390669621372
0,636230390669786485
0,636230390669956606
0,636230390670121711
0,636230390670291836
0,636230390670457133
0,636230390670622067
0,636230390670792188
0,636230390670957305
0,636230390671127430
0,636230390671292565
0,636230390671457853
0,636230390671627782
0,636230390671792899
0,636230390671958017
0,636230390672128317
0,636230390672293272
0,636230390672458557
0,636230390672628678
0,636230390672793611
0,636230390672963736
0,636230390673129038
0,636230390673293984
0,636230390673464109
0,636230390673629210
0,636230390673794344
0,636230390673964632
0,636230390674129578
0,636230390674299682
0,636230390674464817
0,636230390674629934
0,636230390674800038
0,636230390674965155
0,636230390675135276
0,636230390675300411
0,636230390675465515
1,636230390675635632
1,636230390675800762
0,636230390675966046
0,636230390676136172
0,636230390676301289
0,636230390676471226
0,636230390676636528
0,636230390676801645
0,636230390676971638
0,636230390677136704
0,636230390677302086
0,636230390677472019
0,636230390677637154
0,636230390677807253
0,636230390677972383
0,636230390678137484
0,636230390678307609
0,636230390678472726
0,636230390678638032
0,636230390678807978
0,636230390678973270
0,636230390679143203
0,636230390679308338
0,636230390679473618
0,636230390679643610
0,636230390679808681
0,636230390679973807
0,636230390680143928
0,636230390680309045
0,636230390680479153
0,636230390680644476
0,636230390680809388
0,636230390680979505
0,636230390681144622
0,636230390681309757
0,636230390681479882
0,636230390681644987
0,636230390681815108
0,636230390681980221
0,636230390682145334
0,636230390682315455
0,636230390682480594
1,636230390682645694
1,636230390682815836
0,636230390682980937
0,636230390683151053
0,636230390683316192
0,636230390683481292
0,636230390683651409
0,636230390683816539
0,636230390683981648
0,636230390684151765
0,636230390684316895
0,636230390684486999
0,636230390684652305
0,636230390684817238
0,636230390684987368
0,636230390685152494
0,636230390685317620
0,636230390685487715
0,636230390685653033
0,636230390685822953
0,636230390685988084
0,636230390686153201
0,636230390686323309
0,636230390686488444
0,636230390686658547
0,636230390686823682
0,636230390686988799
0,636230390687158908
0,636230390687324021
0,636230390687489318
0,636230390687659443
0,636230390687824381
0,636230390687994502
0,636230390688159632
0,636230390688324920
0,636230390688494853
0,636230390688660150
0,636230390688825101
0,636230390688995427
0,636230390689160510
0,636230390689330447
0,636230390689495586
0,636230390689660695
0,636230390689830803
0,636230390689996117
0,636230390690161222
0,636230390690331168
0,636230390690496277
0,636230390690666415
1,636230390690831528
1,636230390690996649
0,636230390691166860
0,636230390691331888
0,636230390691497176
0,636230390691667122
0,636230390691832227
0,636230390692002347
0,636230390692167653
0,636230390692332599
0,636230390692502703
0,636230390692667821
0,636230390692833126
0,636230390693003076
0,636230390693168198
0,636230390693338310
0,636230390693503599
0,636230390693668716
0,636230390693838653
0,636230390694003792
0,636230390694168888
0,636230390694339026
0,636230390694504144
0,636230390694674252
0,636230390694839553
0,636230390695004487
0,636230390695174603
0,636230390695339725
0,636230390695505026
0,636230390695674976
0,636230390695840077
0,636230390696010198
0,636230390696175495
0,636230390696340449
0,636230390696510596
0,636230390696675692
0,636230390696840788
0,636230390697010909
0,636230390697176031
0,636230390697346148
0,636230390697511449
0,636230390697676571
0,636230390697846704
0,636230390698011638
0,636230390698176742
0,636230390698346855
0,636230390698511998
0,636230390698682102
0,636230390698847228
0,636230390699012341
0,636230390699182458
0,636230390699347575
0,636230390699517692
0,636230390699682818
0,636230390699847948
0,636230390700018048
0,636230390700183186
0,636230390700348282
0,636230390700518420
0,636230390700683713
0,636230390700848655
0,636230390701018776
0,636230390701183881
0,636230390701353998
0,636230390701519333
1,636230390701684245
1,636230390701854546
0,636230390702019655
0,636230390702184592
0,636230390702354709
0,636230390702520006
0,636230390702689948
0,636230390702855074
0,636230390703020182
0,636230390703190308
0,636230390703355438
0,636230390703525542
0,636230390703690672
0,636230390703855785
0,636230390704025893
0,636230390704191199
0,636230390704356150
0,636230390704526275
0,636230390704691559
0,636230390704861509
0,636230390705026613
0,636230390705191727
0,636230390705361852
0,636230390705526969
0,636230390705692279
0,636230390705862383
0,636230390706027505
0,636230390706197442
0,636230390706362576
0,636230390706527677
0,636230390706697798
0,636230390706862954
0,636230390707028032
0,636230390707198337
0,636230390707363279
0,636230390707533396
0,636230390707698522
0,636230390707863631
0,636230390708033743
0,636230390708199053
0,636230390708363982
1,636230390708534292
1,636230390708699349
0,636230390708869350
0,636230390709034647
0,636230390709199581
0,636230390709369698
0,636230390709534999
0,636230390709699932
0,636230390709870053
0,636230390710035192
0,636230390710205292
0,636230390710370593
0,636230390710535544
0,636230390710705840
0,636230390710870949
0,636230390711036066
0,636230390711206025
0,636230390711371125
0,636230390711541246
0,636230390711706364
0,636230390711871494
0,636230390712041619
0,636230390712206736
0,636230390712371850
0,636230390712541966
0,636230390712707263
0,636230390712877192
0,636230390713042326
0,636230390713207439
0,636230390713377573
0,636230390713542849
0,636230390713707800
0,636230390713878143
0,636230390714043226
0,636230390714213172
0,636230390714378285
0,636230390714543394
0,636230390714713502
0,636230390714878628
0,636230390715048736
0,636230390715214042
0,636230390715379155
0,636230390715549135
0,636230390715714209
0,636230390715879335
0,636230390716049478
0,636230390716214565
1,636230390716384699
1,636230390716549816
0,636230390716715105
0,636230390716885046
0,636230390717050164
0,636230390717215461
0,636230390717385402
0,636230390717550536
0,636230390717720640
0,636230390717885762
0,636230390718051055
0,636230390718220996
0,636230390718386131
0,636230390718551411
0,636230390718721348
0,636230390718886645
0,636230390719056599
0,636230390719221887
0,636230390719386838
0,636230390719556942
0,636230390719722059
0,636230390719887361
0,636230390720057298
0,636230390720222424
0,636230390720392536
0,636230390720557653
0,636230390720722955
0,636230390720892892
0,636230390721058026
0,636230390721223140
0,636230390721393265
0,636230390721558553
0,636230390721728486
0,636230390721893608
0,636230390722058725
0,636230390722229034
0,636230390722393959
0,636230390722564080
0,636230390722729407
0,636230390722894319
0,636230390723064470
0,636230390723229571
0,636230390723394671
0,636230390723564976
0,636230390723729926
0,636230390723900035
0,636230390724065161
0,636230390724230269
0,636230390724400433
0,636230390724567107
0,636230390724734128
0,636230390724901118
0,636230390725065376
0,636230390725235514
1,636230390725402928
1,636230390725569115
0,636230390725735977
0,636230390725902219
0,636230390726067589
0,636230390726235584
0,636230390726401185
0,636230390726571699
0,636230390726734734
0,636230390726905163
0,636230390727070580
0,636230390727237801
0,636230390727406686
0,636230390727573121
0,636230390727739354
0,636230390727907384
0,636230390728071805
0,636230390728240638
0,636230390728405940
0,636230390728576232
0,636230390728741328
0,636230390728907266
0,636230390729076177
0,636230390729241872
0,636230390729410043
0,636230390729574078
0,636230390729744131
0,636230390729907584
0,636230390730078116
0,636230390730245094
0,636230390730410036
0,636230390730575145
0,636230390730745270
0,636230390730910392
0,636230390731080508
0,636230390731247571
0,636230390731412689
0,636230390731577819
0,636230390731748090
0,636230390731915876
0,636230390732080356
0,636230390732248972
0,636230390732416172
0,636230390732582897
0,636230390732746620
1,636230390732914492
1,636230390733084609
0,636230390733249931
0,636230390733415049
0,636230390733584960
0,636230390733750082
0,636230390733915212
0,636230390734085320
0,636230390734250433
0,636230390734420563
0,636230390734585689
0,636230390734750811
0,636230390734920953
0,636230390735086049
0,636230390735256153
0,636230390735421266
0,636230390735586388
0,636230390735756521
0,636230390735921630
0,636230390736086739
0,636230390736256864
0,636230390736421982
0,636230390736592103
0,636230390736757408
0,636230390736922355
0,636230390737092463
0,636230390737257764
0,636230390737427697
0,636230390737593020
0,636230390737758133
0,636230390737928057
0,636230390738093170
0,636230390738258467
0,636230390738428417
0,636230390738593526
0,636230390738758827
0,636230390738928773
0,636230390739093886
0,636230390739264016
0,636230390739429137
0,636230390739594417
0,636230390739764367
0,636230390739929476
1,636230390740094593
1,636230390740264727
0,636230390740429845
0,636230390740599953
0,636230390740765083
0,636230390740930384
0,636230390741100304
0,636230390741265426
0,636230390741430552
0,636230390741600848
0,636230390741765782
0,636230390741935903
0,636230390742101020
0,636230390742266317
0,636230390742436443
0,636230390742601393
0,636230390742766493
0,636230390742936803
0,636230390743101736
0,636230390743271853
0,636230390743437000
0,636230390743602276
0,636230390743772367
0,636230390743937322
0,636230390744107447
0,636230390744272765
0,636230390744437861
0,636230390744607803
0,636230390744773104
0,636230390744938059
0,636230390745108154
0,636230390745273460
0,636230390745438402
0,636230390745608540
0,636230390745773640
0,636230390745943770
0,636230390746108887
0,636230390746274001
0,636230390746444254
0,636230390746609307
0,636230390746779356
0,636230390746944644
0,636230390747109595
0,636230390747279703
0,636230390747444833
1,636230390747609951
1,636230390747780063
0,636230390747945364
0,636230390748115293
0,636230390748280432
0,636230390748445741
0,636230390748615657
0,636230390748780775
0,636230390748945896
0,636230390749116026
0,636230390749281126
0,636230390749451247
0,636230390749616548
0,636230390749781490
0,636230390749951663
0,636230390750116720
0,636230390750281851
0,636230390750451963
0,636230390750617239
0,636230390750787210
0,636230390750952332
0,636230390751117428
0,636230390751287557
0,636230390751452692
0,636230390751617805
0,636230390751787909
0,636230390751953039
0,636230390752123147
0,636230390752288264
0,636230390752453399
0,636230390752623499
0,636230390752788620
0,636230390752953926
0,636230390753123863
0,636230390753289164
0,636230390753459097
0,636230390753624227
0,636230390753789349
0,636230390753959453
0,636230390754124754
0,636230390754289692
0,636230390754459993
0,636230390754625110
0,636230390754795043
0,636230390754960177
0,636230390755125295
0,636230390755295399
0,636230390755460516
0,636230390755625642
0,636230390755795754
1,636230390755961060
1,636230390756130997
0,636230390756296123
0,636230390756461236
0,636230390756631353
0,636230390756796483
0,636230390756961605
0,636230390757131893
0,636230390757297006
0,636230390757466956
0,636230390757632077
0,636230390757797182
0,636230390757967316
0,636230390758132604
0,636230390758302537
0,636230390758467680
0,636230390758632964
0,636230390758802893
0,636230390758968198
0,636230390759133145
0,636230390759303257
0,636230390759468550
0,636230390759638491
0,636230390759803788
0,636230390759968722
0,636230390760138847
0,636230390760303973
0,636230390760469091
0,636230390760639203
0,636230390760804316
0,636230390760974441
0,636230390761139559
0,636230390761304685
0,636230390761474806
0,636230390761640107
0,636230390761805182
0,636230390761975337
0,636230390762140454
0,636230390762310391
0,636230390762475693
0,636230390762640806
0,636230390762810756
0,636230390762975865
0,636230390763140995
0,636230390763311317
0,636230390763476220
0,636230390763646341
0,636230390763811454
0,636230390763976576
0,636230390764146701
1,636230390764311998
1,636230390764476945
0,636230390764647070
0,636230390764812350
0,636230390764982296
0,636230390765147422
0,636230390765312714
0,636230390765482647
0,636230390765647782
0,636230390765812882
0,636230390765983183
0,636230390766148116
0,636230390766318241
0,636230390766483363
0,636230390766648489
0,636230390766818606
0,636230390766983723
0,636230390767149016
0,636230390767319137
0,636230390767484070
0,636230390767654191
0,636230390767819488
0,636230390767984426
0,636230390768154616
0,636230390768319677
0,636230390768484795
0,636230390768654907
0,636230390768820033
0,636230390768990146
0,636230390769155276
0,636230390769320372
0,636230390769490681
0,636230390769655623
0,636230390769825736
0,636230390769990849
0,636230390770155979
0,636230390770326160
0,636230390770491226
0,636230390770656514
0,636230390770826627
0,636230390770991569
0,636230390771161686
0,636230390771326807
0,636230390771491920
0,636230390771662157
0,636230390771827159
0,636230390771992293
0,636230390772162602
0,636230390772327694
0,636230390772497636
1,636230390772662937
1,636230390772827870
0,636230390772998090
0,636230390773163293
0,636230390773328406
0,636230390773498343
0,636230390773663653
0,636230390773833586
0,636230390773998703
0,636230390774163820
0,636230390774333950
0,636230390774499243
0,636230390774664172
0,636230390774834485
0,636230390774999427
0,636230390775169536
0,636230390775334841
0,636230390775499954
0,636230390775669891
0,636230390775835193
0,636230390776000306
0,636230390776170260
0,636230390776335377
0,636230390776505486
0,636230390776670783
0,636230390776835904
0,636230390777005867
0,636230390777170967
0,636230390777336256
0,636230390777506210
0,636230390777671327
0,636230390777841440
0,636230390778006566
0,636230390778171670
0,636230390778341787
0,636230390778507093
0,636230390778677030
0,636230390778842327
0,636230390779007453
0,636230390779177386
0,636230390779342683
0,636230390779507616
0,636230390779677887
0,636230390779843043
0,636230390780007981
0,636230390780178281
0,636230390780343215
0,636230390780513336
0,636230390780678457
0,636230390780843754
0,636230390781013875
0,636230390781178822
0,636230390781348926
0,636230390781514060
0,636230390781679349
0,636230390781849286
1,636230390782014399
1,636230390782179525
0,636230390782349821
0,636230390782514939
0,636230390782679872
0,636230390782850181
0,636230390783015294
0,636230390783185236
0,636230390783350349
0,636230390783515466
0,636230390783685600
0,636230390783850747
0,636230390784020838
0,636230390784185952
0,636230390784351078
0,636230390784521233
0,636230390784686393
0,636230390784851600
0,636230390785021541
0,636230390785186655
0,636230390785356780
0,636230390785521897
0,636230390785687199
0,636230390785857153
0,636230390786022253
0,636230390786187375
0,636230390786357509
0,636230390786522609
0,636230390786692756
0,636230390786857847
0,636230390787022965
0,636230390787193081
0,636230390787358387
0,636230390787523316
0,636230390787693459
0,636230390787858743
0,636230390788028680
0,636230390788193797
0,636230390788358932
0,636230390788529168
0,636230390788694380
0,636230390788859266
0,636230390789029571
0,636230390789194509
0,636230390789364630
0,636230390789529927
0,636230390789694878
0,636230390789865140
0,636230390790030283
0,636230390790195221
0,636230390790365363
0,636230390790530480
0,636230390790700576
0,636230390790865881
1,636230390791030999
1,636230390791200949
0,636230390791366070
0,636230390791531188
0,636230390791701287
0,636230390791866593
0,636230390792036530
0,636230390792201647
0,636230390792366760
0,636230390792536903
0,636230390792702208
0,636230390792867326
0,636230390793037254
0,636230390793202539
0,636230390793372480
0,636230390793537777
0,636230390793702715
0,636230390793873028
0,636230390794037949
0,636230390794208074
0,636230390794373192
0,636230390794538313
0,636230390794708473
0,636230390794873564
0,636230390795038660
0,636230390795208799
0,636230390795374087
0,636230390795544054
0,636230390795709154
0,636230390795874447
0,636230390796044389
0,636230390796209681
0,636230390796374628
0,636230390796544740
0,636230390796710046
0,636230390796879978
0,636230390797045092
0,636230390797210431
0,636230390797380433
0,636230390797545460
0,636230390797710569
0,636230390797880865
0,636230390798045816
0,636230390798215920
0,636230390798381042
0,636230390798546176
0,636230390798716289
0,636230390798891405
0,636230390799046511
0,636230390799216632
0,636230390799381766
0,636230390799551874
0,636230390799717180
0,636230390799882126
0,636230390800052230
1,636230390800217343
1,636230390800382461
0,636230390800552637
0,636230390800717712
0,636230390800887828
0,636230390801053108
0,636230390801218269
0,636230390801388176
0,636230390801553310
0,636230390801718428
0,636230390801888536
0,636230390802053670
0,636230390802223774
0,636230390802388892
0,636230390802554189
0,636230390802724130
0,636230390802889252
0,636230390803059368
0,636230390803224721
0,636230390803389804
0,636230390803559737
0,636230390803724854
0,636230390803889955
0,636230390804060093
0,636230390804225219
0,636230390804395314
0,636230390804560615
0,636230390804725566
0,636230390804895687
0,636230390805060804
0,636230390805226114
0,636230390805396039
0,636230390805561160
0,636230390805731268
0,636230390805896574
0,636230390806061687
0,636230390806231633
0,636230390806396754
0,636230390806562043
0,636230390806731993
0,636230390806897102
0,636230390807067236
0,636230390807232340
0,636230390807397449
0,636230390807567690
0,636230390807732905
0,636230390807897809
0,636230390808067943
0,636230390808233231
0,636230390808403168
0,636230390808568465
0,636230390808733587
0,636230390808903533
0,636230390809068642
0,636230390809233763
0,636230390809403884
0,636230390809569207
0,636230390809739114
0,636230390809904236
0,636230390810069375
0,636230390810239470
0,636230390810404604
0,636230390810569709
0,636230390810740014
0,636230390810904947
0,636230390811075068
0,636230390811240212
0,636230390811405487
0,636230390811575433
0,636230390811740721
1,636230390811905672
1,636230390812075964
0,636230390812240910
0,636230390812411018
0,636230390812576328
0,636230390812741262
0,636230390812911400
0,636230390813076487
0,636230390813241613
0,636230390813411730
0,636230390813576852
0,636230390813746968
0,636230390813912094
0,636230390814077404
0,636230390814247423
0,636230390814412656
0,636230390814577572
0,636230390814747868
0,636230390814912810
0,636230390815082923
0,636230390815248032
0,636230390815413153
0,636230390815583287
0,636230390815748405
0,636230390815913731
0,636230390816083630
0,636230390816248756
0,636230390816418868
0,636230390816584003
0,636230390816749103
0,636230390816919237
0,636230390817084363
0,636230390817249472
0,636230390817419593
0,636230390817584698
0,636230390817754823
0,636230390817919932
0,636230390818085267
1,636230390818255384
1,636230390818420287
0,636230390818590413
0,636230390818755620
0,636230390818920648
0,636230390819090790
0,636230390819255886
0,636230390819421187
0,636230390819591133
0,636230390819756250
0,636230390819926363
0,636230390820091480
0,636230390820256807
0,636230390820426719
0,636230390820591853
0,636230390820756966
0,636230390820927258
0,636230390821092376
0,636230390821262313
0,636230390821427426
0,636230390821592543
0,636230390821762681
0,636230390821927807
0,636230390822097907
0,636230390822263225
0,636230390822428326
0,636230390822598263
0,636230390822763380
0,636230390822928681
0,636230390823098657
0,636230390823263916
0,636230390823428866
0,636230390823598987
0,636230390823764109
0,636230390823934213
0,636230390824099330
0,636230390824264661
0,636230390824434646
0,636230390824599682
0,636230390824764987
0,636230390824934937
0,636230390825100042
0,636230390825270163
0,636230390825435314
0,636230390825600393
0,636230390825770655
0,636230390825935636
0,636230390826100758
1,636230390826270874
1,636230390826436005
0,636230390826606113
0,636230390826771414
0,636230390826936360
0,636230390827106657
0,636230390827271766
0,636230390827436887
0,636230390827607004
0,636230390827771959
0,636230390827942063
0,636230390828107184
0,636230390828272302
0,636230390828442598
0,636230390828607545
0,636230390828777657
0,636230390828942787
0,636230390829107892
0,636230390829278026
0,636230390829443126
0,636230390829608260
0,636230390829778364
0,636230390829943670
0,636230390830113607
0,636230390830278729
0,636230390830443842
0,636230390830613967
0,636230390830779076
0,636230390830944403
0,636230390831114336
0,636230390831279616
0,636230390831449557
0,636230390831614687
0,636230390831779788
0,636230390831949951
0,636230390832115214
0,636230390832280331
0,636230390832450273
0,636230390832615570
0,636230390832785507
0,636230390832950804
0,636230390833115921
0,636230390833285876
0,636230390833451160
0,636230390833616115
0,636230390833786214
0,636230390833951516
0,636230390834121457
0,636230390834286587
1,636230390834451726
1,636230390834621821
0,636230390834786926
0,636230390834952232
0,636230390835122348
0,636230390835287299
0,636230390835457411
0,636230390835622524
0,636230390835787655
0,636230390835957771
0,636230390836122876
0,636230390836287998
0,636230390836458131
0,636230390836623266
0,636230390836793374
0,636230390836958470
0,636230390837123588
0,636230390837293918
0,636230390837458843
0,636230390837628951
0,636230390837794253
0,636230390837959378
0,636230390838129307
0,636230390838294420
0,636230390838459726
0,636230390838629663
0,636230390838794797
0,636230390838964905
0,636230390839130036
0,636230390839295149
0,636230390839465270
0,636230390839630554
0,636230390839795496
0,636230390839965792
0,636230390840130910
0,636230390840300851
0,636230390840466157
0,636230390840631103
0,636230390840801263
0,636230390840966324
0,636230390841131626
0,636230390841301559
0,636230390841466864
0,636230390841636801
0,636230390841801931
1,636230390841967049
1,636230390842137166
0,636230390842302287
0,636230390842467388
0,636230390842637509
0,636230390842802643
0,636230390842972751
0,636230390843138053
0,636230390843302986
0,636230390843473111
0,636230390843638224
0,636230390843803342
0,636230390843973480
0,636230390844138576
0,636230390844308697
0,636230390844473814
0,636230390844639116
0,636230390844809057
0,636230390844974213
0,636230390845139292
0,636230390845309409
0,636230390845474526
0,636230390845644651
0,636230390845809782
0,636230390845974903
0,636230390846145016
0,636230390846310308
0,636230390846475255
0,636230390846645542
0,636230390846810660
0,636230390846980601
0,636230390847145723
0,636230390847310862
0,636230390847480957
0,636230390847646092
0,636230390847811205
0,636230390847981326
0,636230390848146614
0,636230390848316547
0,636230390848481669
0,636230390848646799
0,636230390848816933
0,636230390848982020
0,636230390849147155
0,636230390849317271
0,636230390849482385
0,636230390849652514
0,636230390849817632
0,636230390849982753
1,636230390850152921
1,636230390850317970
0,636230390850483105
0,636230390850653213
0,636230390850818326
0,636230390850988451
0,636230390851153748
0,636230390851318690
0,636230390851488811
0,636230390851654104
0,636230390851819042
0,636230390851989351
0,636230390852154464
0,636230390852324401
0,636230390852489532
0,636230390852654824
0,636230390852824941
0,636230390852989879
0,636230390853159996
0,636230390853325169
0,636230390853490453
0,636230390853660437
0,636230390853825520
0,636230390853990637
0,636230390854160746
0,636230390854325880
0,636230390854495984
0,636230390854661285
0,636230390854826403
0,636230390854996353
0,636230390855161637
0,636230390855326759
0,636230390855496691
0,636230390855661826
0,636230390855831934
0,636230390855997231
0,636230390856162186
0,636230390856332290
0,636230390856497587
0,636230390856662542
0,636230390856832830
0,636230390856997951
0,636230390857167884
0,636230390857333014
0,636230390857498303
0,636230390857668248
0,636230390857833357
0,636230390857998659
0,636230390858168608
0,636230390858333935
0,636230390858503834
0,636230390858669131
0,636230390858834257
0,636230390859004198
1,636230390859169495
1,636230390859334420
0,636230390859504563
0,636230390859669667
0,636230390859839784
0,636230390860004910
0,636230390860170198
0,636230390860340195
0,636230390860505283
0,636230390860670388
0,636230390860840496
0,636230390861005630
0,636230390861175734
0,636230390861340864
0,636230390861505982
0,636230390861676103
0,636230390861841212
0,636230390862006329
0,636230390862176463
0,636230390862341559
0,636230390862511688
0,636230390862676814
0,636230390862842103
0,636230390863012044
0,636230390863177341
0,636230390863342459
0,636230390863512580
0,636230390863677697
0,636230390863847634
0,636230390864012764
0,636230390864177882
0,636230390864348007
0,636230390864513295
0,636230390864683228
0,636230390864848525
0,636230390865013476
0,636230390865183588
0,636230390865348701
0,636230390865513823
0,636230390865683991
0,636230390865849053
0,636230390866014179
0,636230390866184317
0,636230390866349426
0,636230390866519534
0,636230390866684651
0,636230390866849777
0,636230390867019890
0,636230390867185003
0,636230390867350133
0,636230390867520434
0,636230390867685376
0,636230390867855493
0,636230390868020785
1,636230390868185732
1,636230390868355853
0,636230390868520962
0,636230390868691083
0,636230390868856196
0,636230390869021501
0,636230390869191447
0,636230390869356547
0,636230390869521682
0,636230390869691803
0,636230390869856924
0,636230390870027037
0,636230390870192334
0,636230390870357263
0,636230390870527388
0,636230390870692711
0,636230390870857837
0,636230390871027945
0,636230390871193063
0,636230390871362978
0,636230390871528284
0,636230390871693397
0,636230390871863420
0,636230390872028464
0,636230390872193757
0,636230390872363870
0,636230390872528812
0,636230390872698928
0,636230390872864063
0,636230390873029347
0,636230390873199434
0,636230390873364406
0,636230390873529711
0,636230390873699832
0,636230390873864757
0,636230390874034883
0,636230390874199991
0,636230390874365109
0,636230390874535238
0,636230390874700364
0,636230390874870477
0,636230390875035778
0,636230390875200908
0,636230390875370833
0,636230390875536125
0,636230390875701076
0,636230390875871364
0,636230390876036490
0,636230390876201415
0,636230390876371536
0,636230390876536657
0,636230390876706928
0,636230390876871921
0,636230390877037218
1,636230390877207339
1,636230390877372435
0,636230390877542373
0,636230390877707486
0,636230390877872603
0,636230390878042728
0,636230390878208025
0,636230390878373147
0,636230390878543264
0,636230390878708206
0,636230390878878323
0,636230390879043449
0,636230390879208574
0,636230390879378717
0,636230390879543975
0,636230390879709097
0,636230390879879047
0,636230390880044340
0,636230390880214273
0,636230390880379411
0,636230390880544696
0,636230390880714628
0,636230390880879771
0,636230390881044876
0,636230390881214997
0,636230390881380290
0,636230390881550227
0,636230390881715340
0,636230390881880457
0,636230390882050591
0,636230390882215880
0,636230390882380809
0,636230390882550934
0,636230390882716052
0,636230390882886177
0,636230390883051299
0,636230390883216412
0,636230390883386533
0,636230390883551860
0,636230390883716759
0,636230390883886888
0,636230390884052186
0,636230390884222123
0,636230390884387244
0,636230390884552546
0,636230390884722474
0,636230390884887600
0,636230390885057730
0,636230390885222843
0,636230390885387956
0,636230390885558090
0,636230390885723395
0,636230390885888320
0,636230390886058437
1,636230390886223563
1,636230390886388659
0,636230390886558968
0,636230390886723919
0,636230390886894035
0,636230390887059324
0,636230390887224446
0,636230390887394391
0,636230390887559509
0,636230390887729617
0,636230390887894730
0,636230390888059856
0,636230390888229985
0,636230390888395103
0,636230390888560216
0,636230390888730341
0,636230390888895634
0,636230390889065567
0,636230390889230684
0,636230390889395986
0,636230390889565927
0,636230390889731053
0,636230390889896346
0,636230390890066278
0,636230390890231584
0,636230390890401513
0,636230390890566822
0,636230390890731936
0,636230390890901881
0,636230390891067174
0,636230390891232291
0,636230390891402412
0,636230390891567354
0,636230390891737480
0,636230390891902580
0,636230390892067714
0,636230390892237835
0,636230390892402953
0,636230390892568070
0,636230390892738178
0,636230390892903480
0,636230390893073421
0,636230390893238722
0,636230390893403831
0,636230390893573790
0,636230390893738894
0,636230390893904196
0,636230390894074146
0,636230390894239430
0,636230390894409380
0,636230390894574497
0,636230390894739781
1,636230390894909740
1,636230390895074844
0,636230390895239975
0,636230390895410078
0,636230390895575209
0,636230390895745330
0,636230390895910447
0,636230390896075761
0,636230390896245720
0,636230390896411000
0,636230390896580924
0,636230390896746024
0,636230390896911142
0,636230390897081267
0,636230390897246384
0,636230390897411686
0,636230390897581631
0,636230390897746766
0,636230390897911866
0,636230390898081996
0,636230390898247301
0,636230390898417230
0,636230390898582339
0,636230390898747631
0,636230390898917598
0,636230390899082707
0,636230390899247991
0,636230390899417941
0,636230390899583157
0,636230390899753175
0,636230390899918293
0,636230390900083406
0,636230390900253724
0,636230390900418653
0,636230390900588761
0,636230390900754058
0,636230390900919009
0,636230390901089113
0,636230390901254234
0,636230390901419373
0,636230390901589473
0,636230390901754586
0,636230390901924724
0,636230390902089841
0,636230390902254946
0,636230390902425075
0,636230390902590184
0,636230390902755490
0,636230390902925440
0,636230390903090540
0,636230390903260661
0,636230390903425796
0,636230390903591080
0,636230390903761025
1,636230390903926139
1,636230390904091260
0,636230390904261557
0,636230390904426674
0,636230390904596615
0,636230390904761741
0,636230390904926859
0,636230390905096967
0,636230390905262268
0,636230390905427206
0,636230390905597507
0,636230390905762453
0,636230390905932561
0,636230390906097867
0,636230390906262813
0,636230390906432917
0,636230390906598218
0,636230390906763169
0,636230390906933273
0,636230390907098390
0,636230390907268511
0,636230390907433641
0,636230390907598746
0,636230390907768871
0,636230390907933984
0,636230390908099119
0,636230390908269231
0,636230390908434524
0,636230390908604470
0,636230390908769762
0,636230390908934700
0,636230390909104817
0,636230390909270118
0,636230390909435236
0,636230390909605186
0,636230390909770500
0,636230390909940411
0,636230390910105717
0,636230390910270830
0,636230390910440771
0,636230390910606077
0,636230390910771010
0,636230390910941140
0,636230390911106424
0,636230390911276365
0,636230390911441662
0,636230390911606609
0,636230390911776905
0,636230390911942023
0,636230390912111955
0,636230390912277257
1,636230390912442207
1,636230390912612324
0,636230390912777437
0,636230390912942584
0,636230390913112684
0,636230390913277789
0,636230390913442923
0,636230390913613207
0,636230390913778328
0,636230390913948274
0,636230390914113383
0,636230390914278496
0,636230390914448801
0,636230390914613764
0,636230390914778865
0,636230390914948973
0,636230390915114300
0,636230390915284211
0,636230390915449329
0,636230390915614463
0,636230390915784567
0,636230390915949697
0,636230390916119805
0,636230390916284927
0,636230390916450036
0,636230390916620174
0,636230390916785291
0,636230390916950413
0,636230390917120701
0,636230390917285634
0,636230390917455768
0,636230390917621061
0,636230390917786007
0,636230390917956120
0,636230390918121413
0,636230390918286350
0,636230390918456651
0,636230390918621768
0,636230390918791710
0,636230390918956823
0,636230390919121940
0,636230390919292198
0,636230390919457196
0,636230390919622313
0,636230390919792609
0,636230390919957727
0,636230390920127655
0,636230390920292786
0,636230390920458078
0,636230390920628024
1,636230390920793308
1,636230390920958263
0,636230390921128380
0,636230390921293489
0,636230390921463610
0,636230390921628907
0,636230390921794024
0,636230390921964149
0,636230390922129267
0,636230390922299200
0,636230390922464334
0,636230390922629618
0,636230390922799568
0,636230390922964861
0,636230390923129790
0,636230390923300335
0,636230390923465649
0,636230390923630770
0,636230390923800690
0,636230390923965804
0,636230390924135916
0,636230390924301051
0,636230390924466164
0,636230390924636280
0,636230390924801406
0,636230390924966507
0,636230390925136636
0,636230390925301758
0,636230390925471866
0,636230390925637189
0,636230390925802135
0,636230390925972222
0,636230390926137343
0,636230390926302457
0,636230390926472603
0,636230390926637708
0,636230390926807816
0,636230390926973126
0,636230390927138072
0,636230390927308180
0,636230390927473477
0,636230390927638419
0,636230390927808712
0,636230390927973829
0,636230390928143770
0,636230390928309072
0,636230390928474185
0,636230390928644267
0,636230390928809239
0,636230390928974545
0,636230390929144495
1,636230390929309595
1,636230390929479725
0,636230390929645017
0,636230390929810139
0,636230390929980076
0,636230390930145373
0,636230390930310311
0,636230390930480428
0,636230390930645549
0,636230390930815666
0,636230390930980792
0,636230390931146085
0,636230390931316210
0,636230390931481156
0,636230390931651265
0,636230390931816562
0,636230390931981683
0,636230390932151633
0,636230390932316947
0,636230390932481868
0,636230390932651989
0,636230390932817094
0,636230390932987210
0,636230390933152345
0,636230390933317445
0,636230390933487575
0,636230390933652688
0,636230390933817985
0,636230390933987939
0,636230390934153056
0,636230390934323165
0,636230390934488295
0,636230390934653583
0,636230390934823529
0,636230390934988638
0,636230390935153943
0,636230390935324060
0,636230390935489006
0,636230390935659110
0,636230390935824232
0,636230390935989349
0,636230390936159470
0,636230390936324588
0,636230390936489889
0,636230390936659839
0,636230390936824956
0,636230390936995065
0,636230390937160199
0,636230390937325299
0,636230390937495467
0,636230390937660551
0,636230390937825672
0,636230390937995772
0,636230390938161073
0,636230390938331010
0,636230390938496324
0,636230390938661429
1,636230390938831366
1,636230390938996488
0,636230390939161618
0,636230390939331730
0,636230390939497032
0,636230390939666965
0,636230390939832078
0,636230390939997392
0,636230390940167320
0,636230390940332438
0,636230390940497743
0,636230390940667693
0,636230390940832811
0,636230390941002915
0,636230390941168028
0,636230390941333162
0,636230390941503454
0,636230390941668401
0,636230390941838504
0,636230390942003814
0,636230390942168932
0,636230390942338873
0,636230390942503986
0,636230390942669117
0,636230390942839233
0,636230390943004338
0,636230390943174455
0,636230390943339576
0,636230390943504698
0,636230390943674810
0,636230390943839945
0,636230390944005242
0,636230390944175170
0,636230390944340301
0,636230390944510409
0,636230390944675539
0,636230390944840828
0,636230390945010773
0,636230390945176066
0,636230390945341188
0,636230390945511300
0,636230390945676255
0,636230390945846355
0,636230390946011656
0,636230390946176628
0,636230390946346719
0,636230390946511845
0,636230390946677138
0,636230390946847079
0,636230390947012196
0,636230390947182309
0,636230390947347439
0,636230390947512728
0,636230390947682673
0,636230390947847795
1,636230390948017899
1,636230390948183020
0,636230390948348138
0,636230390948518263
0,636230390948683376
0,636230390948848502
0,636230390949028617
0,636230390949183732
0,636230390949348862
0,636230390949518983
0,636230390949684096
0,636230390949854217
0,636230390950019506
0,636230390950184456
0,636230390950354560
0,636230390950519682
0,636230390950684804
0,636230390950854942
0,636230390951020068
0,636230390951190159
0,636230390951355293
0,636230390951520411
0,636230390951690515
0,636230390951855645
0,636230390952025749
0,636230390952190883
0,636230390952356172
0,636230390952526117
0,636230390952691226
0,636230390952856348
0,636230390953026670
0,636230390953191787
0,636230390953356708
0,636230390953527009
0,636230390953692122
0,636230390953862055
0,636230390954027356
0,636230390954192302
0,636230390954362415
0,636230390954527716
0,636230390954697649
0,636230390954862950
0,636230390955027896
0,636230390955198009
0,636230390955363310
0,636230390955528257
0,636230390955698377
0,636230390955863666
0,636230390956033612
0,636230390956198900
0,636230390956364385
1,636230390956534322
1,636230390956699461
0,636230390956864587
0,636230390957034682
0,636230390957199800
0,636230390957365118
0,636230390957535051
0,636230390957700335
0,636230390957870272
0,636230390958035394
0,636230390958200691
0,636230390958370641
0,636230390958535746
0,636230390958700872
0,636230390958871181
0,636230390959036110
0,636230390959206222
0,636230390959371361
0,636230390959536457
0,636230390959706766
0,636230390959871880
0,636230390960037001
0,636230390960207118
0,636230390960372235
0,636230390960542177
0,636230390960707478
0,636230390960872424
0,636230390961042532
0,636230390961207680
0,636230390961377767
0,636230390961542905
0,636230390961708019
0,636230390961878140
0,636230390962043244
0,636230390962208541
0,636230390962378671
0,636230390962543596
0,636230390962708905
0,636230390962879018
0,636230390963043956
0,636230390963214085
0,636230390963379198
0,636230390963544495
0,636230390963714450
0,636230390963879755
0,636230390964049671
0,636230390964214788
1,636230390964379901
1,636230390964550040
0,636230390964715332
0,636230390964880274
0,636230390965050562
0,636230390965215508
0,636230390965380622
0,636230390965550939
0,636230390965716070
0,636230390965885981
0,636230390966051094
0,636230390966216224
0,636230390966386371
0,636230390966551463
0,636230390966721571
0,636230390966886701
0,636230390967051985
0,636230390967221935
0,636230390967387061
0,636230390967552179
0,636230390967722278
0,636230390967887400
0,636230390968057521
0,636230390968222664
0,636230390968387756
0,636230390968557881
0,636230390968722994
0,636230390968888120
0,636230390969058233
0,636230390969223367
0,636230390969393471
0,636230390969558588
0,636230390969723719
0,636230390969893827
0,636230390970059162
0,636230390970224263
0,636230390970394366
0,636230390970559313
0,636230390970729421
0,636230390970894534
0,636230390971059651
0,636230390971229777
0,636230390971394894
0,636230390971560007
0,636230390971730316
0,636230390971895259
0,636230390972065384
0,636230390972230672
0,636230390972395606
0,636230390972565911
0,636230390972730844
1,636230390972900961
1,636230390973066078
0,636230390973231200
0,636230390973401334
0,636230390973566614
0,636230390973731581
0,636230390973901861
0,636230390974066794
0,636230390974231916
0,636230390974402028
0,636230390974567154
0,636230390974737284
0,636230390974902393
0,636230390975067690
0,636230390975237640
0,636230390975402928
0,636230390975567870
0,636230390975737991
0,636230390975903297
0,636230390976073281
0,636230390976238343
0,636230390976403469
0,636230390976573590
0,636230390976738707
0,636230390976908824
0,636230390977074116
0,636230390977239234
0,636230390977409180
0,636230390977574472
0,636230390977739410
0,636230390977909706
0,636230390978074644
0,636230390978244761
0,636230390978409878
0,636230390978575184
0,636230390978745130
0,636230390978910238
0,636230390979075356
0,636230390979245490
0,636230390979410607
0,636230390979580715
0,636230390979746016
0,636230390979910954
0,636230390980081080
0,636230390980246372
0,636230390980411520
0,636230390980581427
0,636230390980746540
0,636230390980916674
0,636230390981081791
1,636230390981246917
1,636230390981417025
0,636230390981582318
0,636230390981747435
0,636230390981917390
0,636230390982082490
0,636230390982252611
0,636230390982417728
0,636230390982582863
0,636230390982752975
0,636230390982918277
0,636230390983083214
0,636230390983253506
0,636230390983418436
0,636230390983588561
0,636230390983753678
0,636230390983918800
0,636230390984088942
0,636230390984254231
0,636230390984424155
0,636230390984589290
0,636230390984754578
0,636230390984924520
0,636230390985089817
0,636230390985254759
0,636230390985424875
0,636230390985589984
0,636230390985755285
0,636230390985925223
0,636230390986090353
0,636230390986260478
0,636230390986425591
0,636230390986590696
0,636230390986760821
0,636230390986925951
0,636230390987096059
0,636230390987261356
0,636230390987426303
0,636230390987596522
0,636230390987761717
0,636230390987926834
0,636230390988096771
0,636230390988261901
0,636230390988432014
0,636230390988597140
0,636230390988762458
0,636230390988932361
0,636230390989097483
0,636230390989262596
0,636230390989432901
0,636230390989598018
1,636230390989767959
1,636230390989933081
0,636230390990098190
0,636230390990268328
0,636230390990433437
0,636230390990598563
0,636230390990768872
0,636230390990933806
0,636230390991103909
0,636230390991269048
0,636230390991434332
0,636230390991604274
0,636230390991769400
0,636230390991934517
0,636230390992104796
0,636230390992269738
0,636230390992439855
0,636230390992604985
0,636230390992770090
0,636230390992940241
0,636230390993105333
0,636230390993270450
0,636230390993440563
0,636230390993605684
0,636230390993775805
0,636230390993940918
0,636230390994106057
0,636230390994276161
0,636230390994441390
0,636230390994606426
0,636230390994776525
0,636230390994941818
0,636230390995111755
0,636230390995277078
0,636230390995442007
0,636230390995612137
0,636230390995777412
0,636230390995942534
0,636230390996112651
0,636230390996277593
0,636230390996447705
0,636230390996612861
0,636230390996778124
0,636230390996948078
0,636230390997113191
0,636230390997278317
0,636230390997448421
0,636230390997613731
0,636230390997783660
0,636230390997948768
0,636230390998114074
1,636230390998284024
1,636230390998449312
0,636230390998614259
0,636230390998784384
0,636230390998949493
0,636230390999119618
0,636230390999284740
0,636230390999449844
0,636230390999619961
0,636230390999785091
0,636230390999955204
0,636230391000120338
0,636230391000285618
0,636230391000455585
0,636230391000620861
0,636230391000785794
0,636230391000955920
0,636230391001121212
0,636230391001291149
0,636230391001456271
0,636230391001621568
0,636230391001791505
0,636230391001956811
0,636230391002121924
0,636230391002291878
0,636230391002456996
0,636230391002627112
0,636230391002792409
0,636230391002957347
0,636230391003127460
0,636230391003292573
0,636230391003457904
0,636230391003627824
0,636230391003792941
0,636230391003963049
0,636230391004128171
0,636230391004293468
0,636230391004463414
0,636230391004628711
0,636230391004793824
0,636230391004963765
0,636230391005128891
0,636230391005298999
0,636230391005464322
0,636230391005629234
0,636230391005799351
0,636230391005964486
0,636230391006129594
0,636230391006299720
0,636230391006464846
0,636230391006634954
0,636230391006800071
0,636230391006965201
1,636230391007135318
1,636230391007300440
0,636230391007470552
0,636230391007635875
0,636230391007800779
0,636230391007970899
0,636230391008136201
0,636230391008301318
0,636230391008471260
0,636230391008636377
0,636230391008801494
0,636230391008971804
0,636230391009136733
0,636230391009306850
0,636230391009472151
0,636230391009637302
0,636230391009807415
0,636230391009972511
0,636230391010142448
0,636230391010307745
0,636230391010472679
0,636230391010642812
0,636230391010807917
0,636230391010978042
0,636230391011143164
0,636230391011308281
0,636230391011478398
0,636230391011643695
0,636230391011808646
0,636230391011978775
0,636230391012143888
0,636230391012309001
0,636230391012479293
0,636230391012644236
0,636230391012814348
0,636230391012979461
0,636230391013144758
0,636230391013314700
0,636230391013479825
0,636230391013644947
