56,636230390059654828
56,636230390059769905
56,636230390059874976
56,636230390059985058
56,636230390060090317
56,636230390060200194
56,636230390060305277
56,636230390060410348
56,636230390060515423
56,636230390060620561
56,636230390060730759
56,636230390060835646
56,636230390060940729
56,636230390061045795
56,636230390061151054
56,636230390061256129
56,636230390061361208
56,636230390061466107
56,636230390061566354
56,636230390061671262
56,636230390061776503
56,636230390061881394
56,636230390061986464
56,636230390062091642
56,636230390062196806
56,636230390062301689
56,636230390062406951
56,636230390062516859
56,636230390062622104
56,636230390062727183
56,636230390062832070
56,636230390062937162
56,636230390063042403
56,636230390063152298
56,636230390063262560
56,636230390063367643
56,636230390063472538
56,636230390063577596
56,636230390063682679
56,636230390063787767
56,636230390063897858
56,636230390064003091
56,636230390064107977
56,636230390064213048
56,636230390064318127
56,636230390064423206
56,636230390064528460
56,636230390064633535
56,636230390064738438
56,636230390064843500
56,636230390064948759
56,636230390065053650
56,636230390065153905
56,636230390065263987
56,636230390065369062
56,636230390065473949
56,636230390065584031
56,636230390065684282
56,636230390065789198
56,636230390065894440
56,636230390065999322
56,636230390066104414
56,636230390066209656
56,636230390066314559
56,636230390066419647
56,636230390066524931
56,636230390066630010
56,636230390066734897
56,636230390066845155
56,636230390066950238
56,636230390067055133
56,636230390067165301
56,636230390067270290
56,636230390067375361
56,636230390067480611
56,636230390067585497
56,636230390067690576
56,636230390067800838
56,636230390067905733
56,636230390068010821
56,636230390068111068
56,636230390068216134
56,636230390068321230
56,636230390068426305
56,636230390068531174
56,636230390068636262
56,636230390068741507
56,636230390068846415
56,636230390068951657
56,636230390069056736
56,636230390069161806
56,636230390069266881
56,636230390069371780
56,636230390069476855
56,636230390069581934
58,636230390069687009
58,636230390069797262
58,636230390069902157
58,636230390070007249
58,636230390070112307
58,636230390070217433
58,636230390070322627
58,636230390070427706
58,636230390070532781
58,636230390070637881
58,636230390070742764
58,636230390070848010
58,636230390070953093
58,636230390071058150
58,636230390071163234
58,636230390071268304
58,636230390071373208
58,636230390071478454
58,636230390071583524
58,636230390071688423
58,636230390071793502
58,636230390071903760
58,636230390072008831
58,636230390072113730
58,636230390072218792
58,636230390072324055
58,636230390072429155
58,636230390072534016
58,636230390072639108
58,636230390072744354
58,636230390072849424
58,636230390072954315
58,636230390073059574
58,636230390073164648
58,636230390073269556
58,636230390073374631
58,636230390073484709
58,636230390073589771
58,636230390073700029
58,636230390073804924
58,636230390073915186
58,636230390074020090
58,636230390074120345
58,636230390074225240
58,636230390074330311
58,636230390074435398
58,636230390074540460
58,636230390074645719
58,636230390074750798
58,636230390074860859
58,636230390074970959
58,636230390075075845
58,636230390075181087
58,636230390075286157
58,636230390075391232
58,636230390075501319
58,636230390075611217
58,636230390075716463
58,636230390075821375
58,636230390075926446
58,636230390076031508
58,636230390076136595
58,636230390076241845
58,636230390076346749
58,636230390076456819
58,636230390076561880
58,636230390076666955
58,636230390076772051
58,636230390076877288
58,636230390076982363
58,636230390077092283
58,636230390077197354
58,636230390077307594
58,636230390077417677
58,636230390077522568
58,636230390077627660
58,636230390077732901
58,636230390077837972
58,636230390077943051
58,636230390078048121
58,636230390078153200
58,636230390078258283
58,636230390078363183
58,636230390078468433
58,636230390078573315
58,636230390078678403
58,636230390078783644
58,636230390078888556
58,636230390078993610
58,636230390079098701
58,636230390079203776
58,636230390079309022
58,636230390079413930
58,636230390079518988
58,636230390079624246
58,636230390079734158
58,636230390079839399
60,636230390079949477
60,636230390080054364
60,636230390080159456
60,636230390080264706
60,636230390080369776
60,636230390080479671
60,636230390080584763
60,636230390080689846
60,636230390080794903
60,636230390080899982
60,636230390081005066
60,636230390081110299
60,636230390081215378
60,636230390081320422
60,636230390081425493
60,636230390081530414
60,636230390081630669
60,636230390081735709
60,636230390081840638
60,636230390081945897
60,636230390082050801
60,636230390082161046
60,636230390082266121
60,636230390082376028
60,636230390082481107
60,636230390082586169
60,636230390082691423
60,636230390082796327
60,636230390082906413
60,636230390083011467
60,636230390083116768
60,636230390083221625
60,636230390083326879
60,636230390083431950
60,636230390083541861
60,636230390083646932
60,636230390083752182
60,636230390083857085
60,636230390083962331
60,636230390084067235
60,636230390084172292
60,636230390084277555
60,636230390084382626
60,636230390084487534
60,636230390084592655
60,636230390084697683
60,636230390084802766
60,636230390084907828
60,636230390085013074
60,636230390085118153
60,636230390085223065
60,636230390085328307
60,636230390085433193
60,636230390085538268
60,636230390085643522
60,636230390085748606
60,636230390085853492
60,636230390085963754
60,636230390086068825
60,636230390086173899
60,636230390086278974
60,636230390086383886
60,636230390086488957
60,636230390086594036
60,636230390086699282
60,636230390086804172
60,636230390086909243
60,636230390087014347
60,636230390087119392
60,636230390087224463
60,636230390087329555
60,636230390087434625
60,636230390087544879
60,636230390087649953
60,636230390087755028
60,636230390087865102
60,636230390087970181
60,636230390088080255
60,636230390088185167
60,636230390088290225
60,636230390088395312
60,636230390088500379
60,636230390088605629
60,636230390088710519
60,636230390088815620
60,636230390088925861
60,636230390089030764
60,636230390089135822
60,636230390089241110
60,636230390089346198
60,636230390089451260
60,636230390089556181
60,636230390089661213
60,636230390089766467
57,636230390089876348
57,636230390089981440
57,636230390090086506
57,636230390090191761
57,636230390090296836
57,636230390090401735
57,636230390090506981
57,636230390090611872
57,636230390090716951
57,636230390090822209
57,636230390090927284
57,636230390091032367
57,636230390091137245
57,636230390091247341
57,636230390091352582
57,636230390091457665
57,636230390091567551
57,636230390091672814
57,636230390091777884
57,636230390091882792
57,636230390091987867
57,636230390092092933
57,636230390092198188
57,636230390092303258
57,636230390092408333
57,636230390092513407
57,636230390092618486
57,636230390092723390
57,636230390092833648
57,636230390092938535
57,636230390093048609
57,636230390093153876
57,636230390093258771
57,636230390093363850
57,636230390093474091
57,636230390093579170
57,636230390093684244
57,636230390093789148
57,636230390093894227
57,636230390093999285
57,636230390094104543
57,636230390094209622
57,636230390094314697
57,636230390094419601
57,636230390094524663
57,636230390094629913
57,636230390094734803
57,636230390094840066
57,636230390094944957
57,636230390095050049
57,636230390095160298
57,636230390095265202
57,636230390095370341
57,636230390095480517
57,636230390095585421
57,636230390095695675
57,636230390095800762
57,636230390095905636
57,636230390096010732
57,636230390096115794
57,636230390096221044
57,636230390096325952
57,636230390096431044
57,636230390096536272
57,636230390096646163
57,636230390096751430
57,636230390096856316
57,636230390096961391
57,636230390097066650
57,636230390097171724
57,636230390097276624
57,636230390097376875
57,636230390097481770
57,636230390097586836
57,636230390097691928
57,636230390097796998
57,636230390097902278
57,636230390098007327
57,636230390098112393
57,636230390098217472
57,636230390098322538
57,636230390098427434
57,636230390098532525
57,636230390098637596
57,636230390098742653
57,636230390098847750
57,636230390098952824
57,636230390099057878
57,636230390099163140
57,636230390099268040
58,636230390099373123
58,636230390099478189
58,636230390099583264
58,636230390099688347
58,636230390099793602
58,636230390099898497
58,636230390100003567
58,636230390100108625
58,636230390100213700
58,636230390100318804
58,636230390100423870
58,636230390100528945
58,636230390100634187
58,636230390100739077
58,636230390100844332
58,636230390100954419
58,636230390101059309
58,636230390101164564
58,636230390101269455
58,636230390101374717
58,636230390101484625
58,636230390101594690
58,636230390101699940
58,636230390101804844
58,636230390101909936
58,636230390102010165
58,636230390102115060
58,636230390102225365
58,636230390102330226
58,636230390102435301
58,636230390102540358
58,636230390102650437
58,636230390102750692
58,636230390102855604
58,636230390102960837
58,636230390103065920
58,636230390103170824
58,636230390103275894
58,636230390103380956
58,636230390103486031
58,636230390103591123
58,636230390103696193
58,636230390103796440
58,636230390103906338
58,636230390104011588
58,636230390104116663
58,636230390104221554
58,636230390104331859
58,636230390104436762
58,636230390104541965
58,636230390104646873
58,636230390104751940
58,636230390104857023
58,636230390104962098
58,636230390105072159
58,636230390105177251
58,636230390105282304
58,636230390105382576
58,636230390105487454
58,636230390105592524
58,636230390105697792
58,636230390105802695
58,636230390105912756
58,636230390106022843
58,636230390106128098
58,636230390106232984
58,636230390106338059
58,636230390106443339
58,636230390106548414
58,636230390106658299
58,636230390106763366
58,636230390106873452
58,636230390106978694
58,636230390107083606
58,636230390107188664
58,636230390107293734
58,636230390107398830
58,636230390107504076
58,636230390107608975
58,636230390107714226
58,636230390107819129
58,636230390107924187
58,636230390108024442
58,636230390108129517
58,636230390108234416
58,636230390108339675
58,636230390108444758
58,636230390108549632
58,636230390108654920
58,636230390108759986
58,636230390108870043
58,636230390108974930
58,636230390109080193
58,636230390109185096
58,636230390109290171
58,636230390109395417
58,636230390109500491
58,636230390109605566
58,636230390109710637
58,636230390109815532
58,636230390109920615
58,636230390110025694
58,636230390110135768
58,636230390110240851
58,636230390110346093
58,636230390110450979
58,636230390110556071
58,636230390110661133
58,636230390110771395
58,636230390110876470
58,636230390110981378
58,636230390111086435
58,636230390111191690
58,636230390111301781
58,636230390111406663
58,636230390111511922
58,636230390111621816
58,636230390111726887
58,636230390111836969
58,636230390111942061
58,636230390112052306
58,636230390112157210
58,636230390112262306
58,636230390112367368
58,636230390112472605
58,636230390112582516
58,636230390112687587
58,636230390112792828
58,636230390112897724
58,636230390113002978
58,636230390113113060
58,636230390113217947
58,636230390113323206
58,636230390113433301
58,636230390113543371
58,636230390113648445
58,636230390113753328
58,636230390113858424
58,636230390113963670
58,636230390114073564
58,636230390114178652
58,636230390114283726
58,636230390114388784
58,636230390114498875
58,636230390114603937
58,636230390114714015
58,636230390114819269
58,636230390114924361
58,636230390115029252
58,636230390115134502
58,636230390115239568
58,636230390115344643
58,636230390115454537
58,636230390115559634
58,636230390115664708
58,636230390115769783
58,636230390115874849
58,636230390115984936
58,636230390116090173
58,636230390116195256
58,636230390116300327
58,636230390116405226
58,636230390116515296
58,636230390116620388
58,636230390116725471
58,636230390116830533
58,636230390116935595
58,636230390117045690
58,636230390117150748
58,636230390117255840
58,636230390117361086
58,636230390117470984
58,636230390117581234
58,636230390117691132
58,636230390117796395
58,636230390117901466
58,636230390118006356
58,636230390118111615
58,636230390118221505
58,636230390118326772
58,636230390118431843
58,636230390118541750
58,636230390118646842
58,636230390118752070
58,636230390118856970
58,636230390118962216
58,636230390119067320
58,636230390119172369
58,636230390119277277
58,636230390119387355
58,636230390119492413
58,636230390119602675
58,636230390119707562
58,636230390119812649
58,636230390119922736
59,636230390120027982
59,636230390120133057
59,636230390120238127
59,636230390120343202
59,636230390120448093
59,636230390120558355
59,636230390120663246
59,636230390120773508
59,636230390120878399
59,636230390120983469
59,636230390121088561
59,636230390121193811
59,636230390121298698
59,636230390121408955
59,636230390121513859
59,636230390121619109
59,636230390121729183
59,636230390121834095
59,636230390121939333
59,636230390122044407
59,636230390122154319
59,636230390122259560
59,636230390122364455
59,636230390122469552
59,636230390122574605
59,636230390122679692
59,636230390122784763
59,636230390122889833
59,636230390122999903
59,636230390123104982
59,636230390123210241
59,636230390123315149
59,636230390123420223
59,636230390123525281
59,636230390123630360
59,636230390123735610
59,636230390123840505
59,636230390123945597
59,636230390124055658
59,636230390124160934
59,636230390124265825
59,636230390124376074
59,636230390124480956
59,636230390124586065
59,636230390124691127
59,636230390124801188
59,636230390124906293
59,636230390125011522
59,636230390125116592
59,636230390125221496
59,636230390125326562
59,636230390125431637
59,636230390125536733
59,636230390125641966
59,636230390125747040
59,636230390125851935
59,636230390125957190
59,636230390126062081
59,636230390126172351
59,636230390126282259
59,636230390126387329
59,636230390126492570
59,636230390126597654
59,636230390126702557
59,636230390126807615
59,636230390126912874
59,636230390127017764
59,636230390127122843
59,636230390127227948
59,636230390127333181
59,636230390127438080
59,636230390127548325
59,636230390127653430
59,636230390127758308
59,636230390127863383
59,636230390127968620
59,636230390128078514
59,636230390128188614
59,636230390128293689
59,636230390128398746
59,636230390128503817
59,636230390128608913
59,636230390128714150
59,636230390128819075
59,636230390128924120
59,636230390129029203
59,636230390129134282
59,636230390129239357
59,636230390129344432
59,636230390129449511
60,636230390129554748
60,636230390129659643
60,636230390129764902
60,636230390129874980
60,636230390129979867
60,636230390130080139
60,636230390130190033
60,636230390130300282
60,636230390130405169
60,636230390130510440
60,636230390130615318
60,636230390130720419
60,636230390130825656
60,636230390130930735
60,636230390131035639
60,636230390131140696
60,636230390131250792
60,636230390131355879
60,636230390131461108
60,636230390131566187
60,636230390131671262
60,636230390131776332
60,636230390131881223
60,636230390131986315
60,636230390132091389
60,636230390132196443
60,636230390132301706
60,636230390132406780
60,636230390132511693
60,636230390132616934
60,636230390132722000
60,636230390132826908
60,636230390132931983
60,636230390133037224
60,636230390133142303
60,636230390133247203
60,636230390133352273
60,636230390133457352
60,636230390133562418
60,636230390133667489
60,636230390133772773
60,636230390133877643
60,636230390133987926
60,636230390134097812
60,636230390134203062
60,636230390134308141
60,636230390134413207
60,636230390134518124
60,636230390134623352
60,636230390134733268
60,636230390134838514
60,636230390134943418
60,636230390135048475
60,636230390135158562
60,636230390135263812
60,636230390135368887
60,636230390135478794
60,636230390135583886
60,636230390135688943
60,636230390135794185
60,636230390135899298
60,636230390136004155
60,636230390136109242
60,636230390136214304
60,636230390136324391
60,636230390136434649
60,636230390136539578
60,636230390136649631
60,636230390136754688
60,636230390136859947
60,636230390136964834
60,636230390137070101
60,636230390137174983
60,636230390137285083
60,636230390137390162
60,636230390137495412
60,636230390137600298
60,636230390137705553
60,636230390137815447
60,636230390137915702
60,636230390138020593
60,636230390138125663
60,636230390138235955
60,636230390138340829
60,636230390138445904
60,636230390138550979
60,636230390138656053
61,636230390138761308
61,636230390138866203
61,636230390138971449
61,636230390139076352
61,636230390139181418
61,636230390139286489
61,636230390139391581
61,636230390139496848
61,636230390139601901
61,636230390139706984
61,636230390139811875
61,636230390139916950
61,636230390140022196
61,636230390140127305
61,636230390140232367
61,636230390140337253
61,636230390140442315
61,636230390140552385
61,636230390140657481
61,636230390140762727
61,636230390140872613
61,636230390140977704
61,636230390141087783
61,636230390141193033
61,636230390141297923
61,636230390141403011
61,636230390141508261
61,636230390141613332
61,636230390141718218
61,636230390141828309
61,636230390141928551
61,636230390142033464
61,636230390142138697
61,636230390142248608
61,636230390142353670
61,636230390142458954
61,636230390142563819
61,636230390142668894
61,636230390142779152
61,636230390142889072
61,636230390142994305
61,636230390143099380
61,636230390143204459
61,636230390143314533
61,636230390143419607
61,636230390143524507
61,636230390143629594
61,636230390143734836
61,636230390143844730
61,636230390143949822
61,636230390144054888
61,636230390144155139
61,636230390144260047
61,636230390144365113
61,636230390144470192
61,636230390144575481
61,636230390144680342
61,636230390144785421
61,636230390144890474
61,636230390144995549
61,636230390145100807
61,636230390145205882
61,636230390145310803
61,636230390145416027
61,636230390145526110
61,636230390145631184
61,636230390145736092
61,636230390145841334
61,636230390145946225
61,636230390146056303
61,636230390146166394
61,636230390146271494
61,636230390146376544
61,636230390146481618
61,636230390146586680
61,636230390146691939
61,636230390146797018
61,636230390146902088
61,636230390147006979
61,636230390147112238
61,636230390147222316
61,636230390147327224
61,636230390147432474
61,636230390147537536
61,636230390147642615
61,636230390147747689
61,636230390147852597
61,636230390147957835
61,636230390148062738
61,636230390148162989
61,636230390148267880
61,636230390148372967
61,636230390148478209
61,636230390148583117
61,636230390148688179
61,636230390148798257
61,636230390148903328
61,636230390149008590
61,636230390149113657
61,636230390149218552
61,636230390149328647
61,636230390149433705
61,636230390149538779
61,636230390149644038
61,636230390149748946
61,636230390149854004
61,636230390149959266
61,636230390150064337
61,636230390150169241
61,636230390150274302
61,636230390150379386
61,636230390150489460
61,636230390150594530
61,636230390150699605
61,636230390150809888
61,636230390150914771
61,636230390151024836
61,636230390151130099
61,636230390151235011
61,636230390151340077
61,636230390151445319
61,636230390151550227
61,636230390151656106
61,636230390151756686
61,636230390151859434
61,636230390151960608
61,636230390152061107
61,636230390152169903
61,636230390152271145
61,636230390152372418
61,636230390152475158
61,636230390152576020
61,636230390152676985
61,636230390152782218
61,636230390152882709
61,636230390152990691
61,636230390153092182
61,636230390153199331
61,636230390153300266
61,636230390153400786
61,636230390153501538
61,636230390153605594
61,636230390153706880
61,636230390153810351
61,636230390153911479
61,636230390154012444
61,636230390154116945
61,636230390154217615
61,636230390154321937
61,636230390154423291
61,636230390154528392
61,636230390154629318
61,636230390154729877
61,636230390154830341
61,636230390154934381
61,636230390155035047
61,636230390155136256
61,636230390155240950
61,636230390155343142
61,636230390155445347
61,636230390155550268
61,636230390155655544
61,636230390155756658
61,636230390155857799
61,636230390155960042
61,636230390156061341
61,636230390156162045
61,636230390156267782
61,636230390156369145
61,636230390156474964
61,636230390156580039
61,636230390156681051
61,636230390156786130
61,636230390156887492
61,636230390156987901
61,636230390157093083
61,636230390157198166
61,636230390157303241
61,636230390157408307
61,636230390157518385
61,636230390157623460
61,636230390157728535
61,636230390157839079
61,636230390157943880
61,636230390158045701
61,636230390158148162
61,636230390158250342
61,636230390158357012
61,636230390158461915
61,636230390158566994
61,636230390158672069
61,636230390158777148
61,636230390158887218
61,636230390158992301
61,636230390159097136
61,636230390159197614
61,636230390159307508
61,636230390159408011
61,636230390159511910
61,636230390159617506
61,636230390159720712
61,636230390159827373
61,636230390159936485
61,636230390160041380
61,636230390160151459
61,636230390160256550
61,636230390160361792
61,636230390160471870
61,636230390160581944
61,636230390160691843
61,636230390160792089
61,636230390160897006
61,636230390161002076
61,636230390161107147
61,636230390161212393
61,636230390161317489
61,636230390161427375
61,636230390161537628
61,636230390161642528
61,636230390161747589
61,636230390161852677
61,636230390161962926
61,636230390162067817
61,636230390162173084
61,636230390162278116
61,636230390162383054
61,636230390162488129
61,636230390162593375
61,636230390162698449
61,636230390162803349
61,636230390162903604
61,636230390163008674
61,636230390163113749
61,636230390163218635
61,636230390163323894
61,636230390163428990
61,636230390163534052
61,636230390163639144
61,636230390163744022
61,636230390163849268
61,636230390163954347
61,636230390164059417
61,636230390164164496
61,636230390164269387
61,636230390164379645
61,636230390164484544
61,636230390164589623
61,636230390164694873
61,636230390164799756
61,636230390164904847
61,636230390165009914
61,636230390165114993
61,636230390165220067
61,636230390165320314
61,636230390165425205
61,636230390165530467
61,636230390165635542
61,636230390165745432
61,636230390165850691
61,636230390165960769
61,636230390166065660
61,636230390166170739
61,636230390166275809
61,636230390166380884
61,636230390166485976
61,636230390166591046
61,636230390166696108
61,636230390166801367
61,636230390166906442
61,636230390167011333
61,636230390167116412
61,636230390167221482
61,636230390167326570
61,636230390167431627
61,636230390167541894
61,636230390167646810
61,636230390167752081
61,636230390167862121
61,636230390167967217
61,636230390168072301
61,636230390168182186
61,636230390168287240
61,636230390168392507
61,636230390168497389
61,636230390168602481
61,636230390168712722
61,636230390168817801
61,636230390168927695
61,636230390169032954
61,636230390169137849
61,636230390169243103
61,636230390169348007
61,636230390169458081
61,636230390169563143
61,636230390169668222
61,636230390169773292
61,636230390169878555
61,636230390169983459
61,636230390170088705
61,636230390170193788
61,636230390170298854
61,636230390170403758
61,636230390170509008
61,636230390170614083
61,636230390170719157
61,636230390170824052
61,636230390170929119
61,636230390171034377
61,636230390171139456
61,636230390171244347
61,636230390171349430
61,636230390171454578
61,636230390171559571
61,636230390171664825
61,636230390171769721
61,636230390171879816
61,636230390171984886
61,636230390172090128
61,636230390172200206
61,636230390172305195
61,636230390172410172
61,636230390172515242
61,636230390172620505
61,636230390172725396
61,636230390172830466
61,636230390172935545
61,636230390173040804
61,636230390173150886
61,636230390173255782
61,636230390173356032
61,636230390173465927
61,636230390173571001
61,636230390173676068
61,636230390173781147
61,636230390173886230
61,636230390173991501
61,636230390174096567
61,636230390174201450
61,636230390174306704
61,636230390174411595
61,636230390174516687
61,636230390174621933
61,636230390174726999
61,636230390174837086
61,636230390174942156
61,636230390175047064
61,636230390175152314
61,636230390175257213
61,636230390175362451
61,636230390175467346
61,636230390175572446
61,636230390175677499
61,636230390175782754
64,636230390175892661
64,636230390175992907
64,636230390176097790
64,636230390176203048
64,636230390176308149
64,636230390176413031
64,636230390176518272
64,636230390176623364
64,636230390176728242
64,636230390176833334
64,636230390176938576
64,636230390177043650
64,636230390177148734
64,636230390177253616
64,636230390177358699
64,636230390177468773
64,636230390177573852
64,636230390177678931
64,636230390177784010
64,636230390177889140
64,636230390177999351
64,636230390178104238
64,636230390178209479
64,636230390178319558
64,636230390178424641
64,636230390178529532
64,636230390178634602
64,636230390178739677
64,636230390178844760
64,636230390178949839
64,636230390179059900
64,636230390179160160
64,636230390179265234
64,636230390179370309
64,636230390179480204
64,636230390179585317
64,636230390179690362
64,636230390179795445
64,636230390179900708
64,636230390180005787
64,636230390180110652
64,636230390180220739
64,636230390180325818
64,636230390180431055
64,636230390180536147
64,636230390180646216
64,636230390180751103
64,636230390180856191
64,636230390180961261
64,636230390181071326
64,636230390181176589
64,636230390181281497
64,636230390181386563
64,636230390181491814
64,636230390181596717
64,636230390181701788
64,636230390181807038
64,636230390181911928
64,636230390182017187
64,636230390182127081
64,636230390182232156
64,636230390182337231
64,636230390182442490
69,636230390182547564
69,636230390182657476
69,636230390182762538
69,636230390182867621
69,636230390182977686
69,636230390183087949
69,636230390183193023
69,636230390183297927
69,636230390183403177
69,636230390183513247
69,636230390183623162
69,636230390183728224
69,636230390183833303
69,636230390183943373
69,636230390184053464
69,636230390184163525
69,636230390184273813
69,636230390184378683
69,636230390184483774
69,636230390184588845
69,636230390184694086
69,636230390184798982
69,636230390184904125
69,636230390185009131
69,636230390185114394
69,636230390185219469
69,636230390185324539
69,636230390185429614
69,636230390185539692
69,636230390185649770
69,636230390185754704
69,636230390185859924
69,636230390185964806
69,636230390186069911
69,636230390186174956
69,636230390186285222
69,636230390186390130
69,636230390186500187
69,636230390186605283
69,636230390186710542
69,636230390186815428
69,636230390186920687
69,636230390187025586
69,636230390187130652
69,636230390187235714
69,636230390187340973
69,636230390187446056
69,636230390187550938
69,636230390187656193
69,636230390187761105
69,636230390187871350
69,636230390187976425
69,636230390188081320
69,636230390188186579
69,636230390188291478
69,636230390188396745
69,636230390188506631
69,636230390188611706
69,636230390188716947
69,636230390188821842
69,636230390188927101
69,636230390189032176
69,636230390189137250
69,636230390189242137
69,636230390189347233
69,636230390189452474
72,636230390189557566
72,636230390189662637
72,636230390189767515
72,636230390189872598
72,636230390189977694
72,636230390190082747
72,636230390190187831
72,636230390190293098
72,636230390190403172
72,636230390190508264
72,636230390190613133
72,636230390190718191
72,636230390190823283
72,636230390190928520
72,636230390191033428
72,636230390191138674
72,636230390191243752
72,636230390191348827
72,636230390191458734
72,636230390191568791
72,636230390191673883
72,636230390191784132
72,636230390191894206
72,636230390191999285
72,636230390192104360
72,636230390192209435
72,636230390192314330
72,636230390192419405
72,636230390192524471
72,636230390192629550
72,636230390192729835
72,636230390192834905
72,636230390192939775
72,636230390193045038
72,636230390193154924
72,636230390193260015
72,636230390193365253
72,636230390193470152
72,636230390193575222
72,636230390193680314
72,636230390193785372
72,636230390193890630
72,636230390193995538
72,636230390194100797
72,636230390194205688
72,636230390194310754
72,636230390194416004
72,636230390194526082
72,636230390194631183
72,636230390194741064
72,636230390194846310
72,636230390194951201
72,636230390195061292
72,636230390195171370
72,636230390195276612
72,636230390195381520
72,636230390195486582
72,636230390195591669
72,636230390195696740
72,636230390195801823
72,636230390195906876
72,636230390196012148
72,636230390196117218
72,636230390196222297
72,636230390196327196
72,636230390196432442
72,636230390196542362
72,636230390196647424
72,636230390196752482
72,636230390196857745
72,636230390196962648
72,636230390197067894
72,636230390197177797
72,636230390197283043
72,636230390197387951
72,636230390197493008
72,636230390197598083
72,636230390197703342
72,636230390197808245
72,636230390197913500
72,636230390198018566
72,636230390198123478
72,636230390198228715
72,636230390198338794
72,636230390198443684
72,636230390198553767
72,636230390198658872
72,636230390198773941
73,636230390198879007
73,636230390198984069
73,636230390199089161
73,636230390199194222
73,636230390199299494
73,636230390199409371
73,636230390199514630
73,636230390199619713
73,636230390199729791
73,636230390199834682
73,636230390199939932
73,636230390200045015
73,636230390200150086
73,636230390200254972
73,636230390200360051
73,636230390200465306
73,636230390200575380
73,636230390200680279
73,636230390200785350
73,636230390200890441
73,636230390200995520
73,636230390201100587
73,636230390201210836
73,636230390201315740
73,636230390201420985
73,636230390201530893
73,636230390201636138
73,636230390201746217
73,636230390201851300
73,636230390201956375
73,636230390202061278
73,636230390202166344
73,636230390202271406
73,636230390202376682
73,636230390202481556
73,636230390202586814
73,636230390202691727
73,636230390202791956
73,636230390202896855
73,636230390202997115
73,636230390203106996
73,636230390203212080
73,636230390203317167
73,636230390203422220
73,636230390203532324
73,636230390203637562
73,636230390203742636
73,636230390203847553
73,636230390203952786
73,636230390204057689
73,636230390204162781
73,636230390204263015
73,636230390204368085
73,636230390204472985
73,636230390204578231
73,636230390204683134
73,636230390204788200
73,636230390204893284
73,636230390204998350
73,636230390205103437
73,636230390205208679
73,636230390205313766
73,636230390205418649
73,636230390205523758
73,636230390205628807
73,636230390205734057
73,636230390205838943
73,636230390205944202
73,636230390206049110
73,636230390206154185
73,636230390206259242
73,636230390206364501
73,636230390206469575
73,636230390206574479
73,636230390206679729
73,636230390206789619
73,636230390206894698
73,636230390206999773
73,636230390207110035
73,636230390207214935
73,636230390207325184
73,636230390207430092
73,636230390207535167
73,636230390207640237
73,636230390207745483
73,636230390207850566
73,636230390207955632
73,636230390208060523
73,636230390208170785
73,636230390208275693
73,636230390208380939
73,636230390208485825
73,636230390208590900
73,636230390208695975
73,636230390208801238
73,636230390208906308
73,636230390209011216
73,636230390209111454
73,636230390209216349
73,636230390209321604
73,636230390209426717
73,636230390209531573
73,636230390209631876
73,636230390209736728
73,636230390209841995
73,636230390209946869
73,636230390210052132
73,636230390210157198
73,636230390210262273
73,636230390210367163
73,636230390210472255
73,636230390210577501
73,636230390210682571
73,636230390210787479
73,636230390210892537
73,636230390210997800
73,636230390211102699
73,636230390211207765
73,636230390211312849
73,636230390211417919
73,636230390211523169
73,636230390211633064
73,636230390211738339
73,636230390211848426
73,636230390211953308
73,636230390212063549
73,636230390212168628
73,636230390212273707
73,636230390212378782
73,636230390212483681
73,636230390212588927
73,636230390212693831
73,636230390212794227
73,636230390212899284
73,636230390213009371
73,636230390213114442
73,636230390213219516
73,636230390213324583
73,636230390213429850
73,636230390213534925
73,636230390213639828
73,636230390213745070
73,636230390213850144
73,636230390213955052
73,636230390214060290
73,636230390214165364
73,636230390214270448
73,636230390214380355
73,636230390214485412
73,636230390214590671
73,636230390214695575
73,636230390214800632
73,636230390214905720
73,636230390215010966
73,636230390215115856
73,636230390215220940
73,636230390215326023
73,636230390215431089
73,636230390215536155
73,636230390215641234
73,636230390215751522
73,636230390215856400
73,636230390215961471
73,636230390216066537
73,636230390216171795
73,636230390216276870
73,636230390216381778
73,636230390216486836
73,636230390216592090
73,636230390216697169
73,636230390216807247
73,636230390216912147
73,636230390217017226
73,636230390217122300
73,636230390217227546
73,636230390217332621
73,636230390217437520
73,636230390217542766
74,636230390217647845
74,636230390217757940
74,636230390217862827
74,636230390217967902
74,636230390218077976
74,636230390218183243
74,636230390218288134
74,636230390218393384
74,636230390218503270
74,636230390218613527
74,636230390218718615
74,636230390218823677
74,636230390218928756
74,636230390219033719
74,636230390219138730
74,636230390219243980
74,636230390219353870
74,636230390219458970
74,636230390219564032
74,636230390219669116
74,636230390219774186
74,636230390219879248
74,636230390219984336
74,636230390220089410
74,636230390220194489
74,636230390220299543
74,636230390220404626
74,636230390220509936
74,636230390220619843
74,636230390220724926
74,636230390220830168
74,636230390220935067
74,636230390221040142
74,636230390221145204
74,636230390221250291
74,636230390221360558
74,636230390221465474
74,636230390221570690
74,636230390221675589
74,636230390221780668
74,636230390221885726
74,636230390221990818
74,636230390222096094
74,636230390222200955
74,636230390222306213
74,636230390222411117
74,636230390222516204
74,636230390222616442
74,636230390222721320
74,636230390222826399
74,636230390222931491
74,636230390223036544
74,636230390223141636
74,636230390223251702
74,636230390223356960
74,636230390223462035
74,636230390223566943
74,636230390223672005
74,636230390223772260
74,636230390223877146
74,636230390223987242
74,636230390224092488
74,636230390224202373
74,636230390224307465
74,636230390224412720
74,636230390224517615
74,636230390224627877
74,636230390224737771
74,636230390224842850
74,636230390224947908
74,636230390225058174
74,636230390225168060
74,636230390225273323
74,636230390225378227
74,636230390225483468
74,636230390225588380
74,636230390225698459
74,636230390225803529
74,636230390225908595
74,636230390226013683
74,636230390226118741
74,636230390226224021
74,636230390226329001
72,636230390226434149
72,636230390226539146
72,636230390226644131
72,636230390226749373
72,636230390226854276
72,636230390226959522
72,636230390227064409
72,636230390227169501
72,636230390227274746
72,636230390227379650
72,636230390227484712
72,636230390227589966
72,636230390227694874
72,636230390227805123
72,636230390227915031
72,636230390228020114
72,636230390228125351
72,636230390228230456
72,636230390228335330
72,636230390228440601
72,636230390228545475
72,636230390228650537
72,636230390228755795
72,636230390228860686
72,636230390228965761
72,636230390229076023
72,636230390229180927
72,636230390229286181
72,636230390229391256
72,636230390229496326
72,636230390229601405
72,636230390229706309
72,636230390229811555
72,636230390229921449
72,636230390230021700
72,636230390230126595
72,636230390230231721
72,636230390230336753
72,636230390230441994
72,636230390230546889
72,636230390230651964
72,636230390230757223
72,636230390230862297
72,636230390230967201
72,636230390231072443
72,636230390231177522
72,636230390231282430
72,636230390231387487
72,636230390231492558
72,636230390231597654
72,636230390231702895
72,636230390231807782
72,636230390231913045
72,636230390232017953
72,636230390232123023
72,636230390232228106
72,636230390232328353
72,636230390232438444
72,636230390232543514
72,636230390232653605
72,636230390232758676
72,636230390232863554
72,636230390232968624
72,636230390233078686
72,636230390233183777
72,636230390233288852
72,636230390233394102
72,636230390233499177
72,636230390233604256
72,636230390233709151
72,636230390233814401
72,636230390233919476
72,636230390234024362
72,636230390234129625
72,636230390234239524
72,636230390234344603
72,636230390234449678
72,636230390234559739
72,636230390234664831
72,636230390234770076
72,636230390234874980
72,636230390234980055
72,636230390235085129
72,636230390235190208
72,636230390235295283
72,636230390235405532
68,636230390235510419
68,636230390235615489
68,636230390235720568
68,636230390235825823
68,636230390235930714
68,636230390236035981
68,636230390236141051
68,636230390236245942
68,636230390236351021
68,636230390236461116
68,636230390236566166
68,636230390236671433
68,636230390236776546
68,636230390236886410
68,636230390236991656
68,636230390237101563
68,636230390237211808
68,636230390237316887
68,636230390237421778
68,636230390237522029
68,636230390237627108
68,636230390237732187
68,636230390237837257
68,636230390237947165
68,636230390238052248
68,636230390238162484
68,636230390238272387
68,636230390238377466
68,636230390238487540
68,636230390238592624
68,636230390238697874
68,636230390238802756
68,636230390238908040
68,636230390239012910
68,636230390239122988
68,636230390239228063
68,636230390239333133
68,636230390239438238
68,636230390239543466
68,636230390239648541
68,636230390239753449
68,636230390239858524
68,636230390239963800
68,636230390240068849
68,636230390240173923
68,636230390240278810
68,636230390240383885
68,636230390240488972
68,636230390240594034
68,636230390240699105
68,636230390240804393
68,636230390240909459
68,636230390241014346
68,636230390241119408
68,636230390241224666
68,636230390241329553
68,636230390241434816
68,636230390241539890
68,636230390241644965
68,636230390241749856
68,636230390241859947
68,636230390241965009
68,636230390242070084
68,636230390242175154
68,636230390242280233
68,636230390242390316
68,636230390242495386
68,636230390242605473
68,636230390242710552
68,636230390242815631
68,636230390242920902
68,636230390243025763
68,636230390243131018
68,636230390243236097
68,636230390243341188
68,636230390243446062
68,636230390243556324
68,636230390243666214
68,636230390243771289
68,636230390243881389
66,636230390243991467
66,636230390244096542
66,636230390244201612
66,636230390244306683
66,636230390244411762
66,636230390244517012
66,636230390244621903
66,636230390244731977
66,636230390244832227
66,636230390244942336
66,636230390245047201
66,636230390245157292
66,636230390245262542
66,636230390245367608
66,636230390245477691
66,636230390245582590
66,636230390245687673
66,636230390245792915
66,636230390245897990
66,636230390246003060
66,636230390246108143
66,636230390246213026
66,636230390246318297
66,636230390246423179
66,636230390246533270
66,636230390246638512
66,636230390246743420
66,636230390246853669
66,636230390246963743
66,636230390247073847
66,636230390247183737
66,636230390247288962
66,636230390247398886
66,636230390247503948
66,636230390247609023
66,636230390247714285
66,636230390247819356
66,636230390247924426
66,636230390248034517
66,636230390248139584
66,636230390248244470
66,636230390248354732
66,636230390248459623
66,636230390248564886
66,636230390248669802
66,636230390248779872
66,636230390248884955
66,636230390248990022
66,636230390249090294
66,636230390249195369
66,636230390249300439
66,636230390249405505
66,636230390249510387
66,636230390249615659
66,636230390249720520
66,636230390249825612
66,636230390249930862
66,636230390250040940
66,636230390250145839
66,636230390250251085
66,636230390250356160
66,636230390250461068
66,636230390250566309
66,636230390250671213
66,636230390250776459
66,636230390250881354
66,636230390250986424
66,636230390251091687
66,636230390251196758
66,636230390251301854
66,636230390251406928
66,636230390251512007
66,636230390251622081
66,636230390251726951
66,636230390251832209
66,636230390251937122
66,636230390252042192
66,636230390252147434
66,636230390252257508
66,636230390252362416
67,636230390252467666
67,636230390252572569
67,636230390252677811
67,636230390252782719
67,636230390252887776
67,636230390252992868
67,636230390253097930
67,636230390253203000
67,636230390253308071
67,636230390253413146
67,636230390253518225
67,636230390253628299
67,636230390253733561
67,636230390253843640
67,636230390253948526
67,636230390254053785
67,636230390254158693
67,636230390254263939
67,636230390254373846
67,636230390254478921
67,636230390254583995
67,636230390254689250
67,636230390254794132
67,636230390254899232
67,636230390255004294
67,636230390255109360
67,636230390255219456
67,636230390255324522
67,636230390255429580
67,636230390255534676
67,636230390255639917
67,636230390255744992
67,636230390255849883
67,636230390255955137
67,636230390256060028
67,636230390256165124
67,636230390256270365
67,636230390256375256
67,636230390256480352
67,636230390256590422
67,636230390256695672
67,636230390256805746
67,636230390256910825
67,636230390257015891
67,636230390257120791
67,636230390257225878
67,636230390257330944
67,636230390257436199
67,636230390257546089
67,636230390257651181
67,636230390257756444
67,636230390257861518
67,636230390257966602
67,636230390258071458
67,636230390258181541
67,636230390258286628
67,636230390258391874
67,636230390258501768
67,636230390258612031
67,636230390258717101
67,636230390258822009
67,636230390258927272
67,636230390259032330
67,636230390259137225
67,636230390259237480
67,636230390259347378
67,636230390259452444
67,636230390259552725
67,636230390259657774
67,636230390259762870
67,636230390259867945
67,636230390259972810
67,636230390260078073
67,636230390260182981
67,636230390260288056
67,636230390260393109
67,636230390260498184
67,636230390260603442
67,636230390260708350
67,636230390260813592
67,636230390260918487
67,636230390261023746
67,636230390261128816
68,636230390261233724
68,636230390261338799
68,636230390261444049
68,636230390261548935
68,636230390261654190
68,636230390261759106
68,636230390261869343
68,636230390261974443
68,636230390262079312
68,636230390262184404
68,636230390262289646
68,636230390262399553
68,636230390262504611
68,636230390262614877
68,636230390262719948
68,636230390262824855
68,636230390262930106
68,636230390263035176
68,636230390263145066
68,636230390263250141
68,636230390263360240
68,636230390263465478
68,636230390263570386
68,636230390263680639
68,636230390263785539
68,636230390263885819
68,636230390263990685
68,636230390264095746
68,636230390264200821
68,636230390264306080
68,636230390264410971
68,636230390264516229
68,636230390264621304
68,636230390264726190
68,636230390264831453
68,636230390264936340
68,636230390265041603
68,636230390265151694
68,636230390265256572
68,636230390265361830
68,636230390265466726
68,636230390265571796
68,636230390265676875
68,636230390265781941
68,636230390265887024
68,636230390265992091
68,636230390266097187
68,636230390266202437
68,636230390266307315
68,636230390266417586
68,636230390266527471
68,636230390266632563
68,636230390266737638
68,636230390266842696
68,636230390266947775
68,636230390267052866
68,636230390267158104
68,636230390267263183
68,636230390267368257
68,636230390267473332
68,636230390267578240
68,636230390267688310
68,636230390267793564
68,636230390267903458
68,636230390268008550
68,636230390268113792
68,636230390268218678
68,636230390268328940
68,636230390268439027
68,636230390268544119
68,636230390268649172
68,636230390268754076
68,636230390268859147
68,636230390268964388
68,636230390269069467
68,636230390269174371
68,636230390269279441
68,636230390269384691
68,636230390269489770
68,636230390269594670
68,636230390269699753
68,636230390269804819
68,636230390269909881
68,636230390270010132
68,636230390270115035
68,636230390270220101
68,636230390270325198
68,636230390270430285
68,636230390270535330
68,636230390270640610
68,636230390270745659
68,636230390270855737
68,636230390270960645
68,636230390271070895
68,636230390271175978
68,636230390271281005
68,636230390271386127
68,636230390271491005
68,636230390271596268
68,636230390271701339
68,636230390271806251
68,636230390271911492
68,636230390272021382
68,636230390272126479
68,636230390272226716
68,636230390272336790
68,636230390272441694
68,636230390272551772
68,636230390272657018
68,636230390272761926
68,636230390272872004
68,636230390272977075
68,636230390273082137
68,636230390273187224
68,636230390273292367
68,636230390273397387
68,636230390273502615
68,636230390273607694
68,636230390273712598
68,636230390273822843
68,636230390273927922
68,636230390274032997
68,636230390274137922
68,636230390274242962
68,636230390274348041
68,636230390274453124
68,636230390274558195
68,636230390274663261
68,636230390274768520
68,636230390274873594
68,636230390274978485
68,636230390275088747
68,636230390275198830
68,636230390275303734
68,636230390275408971
68,636230390275514046
68,636230390275618953
68,636230390275724015
68,636230390275829090
68,636230390275934165
68,636230390276039261
68,636230390276144327
68,636230390276249385
68,636230390276354656
68,636230390276459718
68,636230390276564814
68,636230390276669889
68,636230390276774942
68,636230390276879854
68,636230390276984925
68,636230390277089987
68,636230390277195061
68,636230390277300149
68,636230390277405224
68,636230390277510465
68,636230390277615557
68,636230390277720431
68,636230390277825689
68,636230390277930777
68,636230390278035839
68,636230390278140918
68,636230390278250816
68,636230390278355908
68,636230390278460979
68,636230390278566066
68,636230390278671115
68,636230390278776194
68,636230390278881256
68,636230390278986348
68,636230390279096426
68,636230390279201672
68,636230390279311755
68,636230390279416641
68,636230390279521896
68,636230390279626808
68,636230390279732054
68,636230390279837124
68,636230390279942032
68,636230390280047278
68,636230390280157168
68,636230390280267242
68,636230390280372329
68,636230390280477391
68,636230390280577655
68,636230390280682571
68,636230390280787612
68,636230390280897690
68,636230390281002782
68,636230390281107861
68,636230390281212927
68,636230390281318177
68,636230390281423256
68,636230390281528327
68,636230390281633401
68,636230390281738480
68,636230390281843435
68,636230390281948459
68,636230390282058708
68,636230390282163595
68,636230390282268682
68,636230390282373740
68,636230390282478815
68,636230390282583898
68,636230390282688968
68,636230390282794227
68,636230390282899327
68,636230390283004205
68,636230390283109455
68,636230390283214534
68,636230390283319429
68,636230390283424508
68,636230390283529583
68,636230390283634820
68,636230390283739728
68,636230390283844790
68,636230390283954881
68,636230390284060127
68,636230390284165014
68,636230390284270110
68,636230390284375351
68,636230390284480255
68,636230390284585330
68,636230390284690391
68,636230390284790642
68,636230390284895550
68,636230390285005616
68,636230390285110686
68,636230390285215958
68,636230390285320840
68,636230390285425910
68,636230390285531177
68,636230390285641085
68,636230390285751146
68,636230390285856221
68,636230390285961291
68,636230390286066387
68,636230390286171440
68,636230390286276703
68,636230390286381611
68,636230390286486682
68,636230390286591799
68,636230390286701835
68,636230390286806909
68,636230390286911976
68,636230390287022242
68,636230390287127330
68,636230390287232404
68,636230390287337269
68,636230390287447352
68,636230390287552611
68,636230390287657685
68,636230390287762760
68,636230390287867830
68,636230390287972905
68,636230390288077817
68,636230390288182875
68,636230390288287967
68,636230390288393213
68,636230390288498095
68,636230390288603191
68,636230390288708270
68,636230390288813336
68,636230390288918415
68,636230390289023490
68,636230390289128727
68,636230390289233622
68,636230390289338714
68,636230390289443960
68,636230390289548863
68,636230390289654028
68,636230390289759009
68,636230390289864071
68,636230390289969145
68,636230390290074233
68,636230390290184315
68,636230390290289394
68,636230390290394461
68,636230390290499711
68,636230390290604781
68,636230390290709851
68,636230390290814747
68,636230390290924842
68,636230390291029900
68,636230390291134987
68,636230390291235242
68,636230390291340300
68,636230390291445409
68,636230390291550270
68,636230390291655532
68,636230390291760419
68,636230390291865494
68,636230390291970581
68,636230390292075643
68,636230390292180718
68,636230390292285810
68,636230390292390876
68,636230390292495955
68,636230390292601030
68,636230390292706284
68,636230390292816170
68,636230390292921245
68,636230390293026315
68,636230390293131403
68,636230390293236464
68,636230390293341732
68,636230390293446614
68,636230390293551693
68,636230390293656947
68,636230390293762022
68,636230390293867101
68,636230390293972171
68,636230390294077062
68,636230390294182158
68,636230390294287400
68,636230390294397307
68,636230390294502553
68,636230390294612627
68,636230390294717539
68,636230390294822614
68,636230390294927859
68,636230390295032742
68,636230390295138005
68,636230390295247916
68,636230390295353158
68,636230390295458237
68,636230390295563341
68,636230390295668198
68,636230390295778486
68,636230390295883359
68,636230390295988443
68,636230390296093496
68,636230390296198588
68,636230390296303663
68,636230390296408720
68,636230390296513992
68,636230390296618874
68,636230390296723944
68,636230390296829207
68,636230390296934098
68,636230390297044356
68,636230390297149435
67,636230390297259342
67,636230390297364400
67,636230390297469475
67,636230390297574566
67,636230390297679641
67,636230390297789711
67,636230390297894777
67,636230390297999877
67,636230390298104935
67,636230390298210005
67,636230390298310265
67,636230390298415339
67,636230390298520239
67,636230390298625301
67,636230390298730564
67,636230390298835634
67,636230390298940705
67,636230390299045600
67,636230390299150674
67,636230390299255762
67,636230390299360828
67,636230390299465907
67,636230390299570973
67,636230390299681069
67,636230390299786135
67,636230390299891239
67,636230390299996468
67,636230390300101359
67,636230390300206421
67,636230390300311513
67,636230390300416754
67,636230390300521662
67,636230390300626912
67,636230390300736982
67,636230390300841877
67,636230390300951968
67,636230390301057030
67,636230390301162105
67,636230390301267192
67,636230390301372258
67,636230390301477342
67,636230390301587403
67,636230390301692661
67,636230390301797770
67,636230390301902631
67,636230390302012718
67,636230390302117990
67,636230390302223064
67,636230390302327934
67,636230390302433192
67,636230390302538083
67,636230390302643171
67,636230390302748416
67,636230390302858311
67,636230390302963569
67,636230390303068640
67,636230390303173535
67,636230390303278682
67,636230390303383702
67,636230390303488793
67,636230390303593834
67,636230390303698917
67,636230390303803983
67,636230390303909238
67,636230390304014146
67,636230390304119413
67,636230390304224278
67,636230390304329357
67,636230390304434449
67,636230390304539686
67,636230390304644598
67,636230390304754848
67,636230390304859747
67,636230390304969825
67,636230390305075071
67,636230390305180146
68,636230390305285225
68,636230390305390124
68,636230390305495203
68,636230390305605448
68,636230390305710343
68,636230390305815414
68,636230390305925492
68,636230390306025747
68,636230390306130826
68,636230390306235931
68,636230390306340787
68,636230390306451084
68,636230390306556154
68,636230390306661045
68,636230390306766274
68,636230390306871177
68,636230390306976239
68,636230390307081502
68,636230390307186401
68,636230390307296463
68,636230390307401721
68,636230390307511633
68,636230390307616874
68,636230390307721786
68,636230390307832032
68,636230390307936931
68,636230390308041997
68,636230390308147251
68,636230390308252360
68,636230390308357422
68,636230390308462501
68,636230390308567555
68,636230390308677637
68,636230390308782519
68,636230390308887598
68,636230390308992669
68,636230390309097927
68,636230390309207839
68,636230390309313085
68,636230390309418159
68,636230390309523243
68,636230390309628270
68,636230390309733200
68,636230390309838292
68,636230390309943533
68,636230390310048437
68,636230390310153678
68,636230390310258779
68,636230390310363644
68,636230390310468941
68,636230390310573810
68,636230390310678885
68,636230390310783964
68,636230390310889034
68,636230390310999288
68,636230390311104170
68,636230390311209271
68,636230390311314512
68,636230390311419583
68,636230390311524657
68,636230390311629544
68,636230390311734803
68,636230390311839706
68,636230390311944785
68,636230390312049847
68,636230390312154918
68,636230390312260009
68,636230390312365088
68,636230390312470351
68,636230390312575405
68,636230390312685312
68,636230390312790374
68,636230390312895628
68,636230390313000707
68,636230390313105777
68,636230390313210668
69,636230390313315931
69,636230390313420818
69,636230390313526085
69,636230390313630971
69,636230390313736042
69,636230390313841300
69,636230390313946379
69,636230390314051270
69,636230390314156349
69,636230390314261420
69,636230390314366490
69,636230390314471774
69,636230390314581669
69,636230390314686718
69,636230390314791985
69,636230390314896889
69,636230390315001963
69,636230390315112025
69,636230390315217095
69,636230390315322358
69,636230390315427428
69,636230390315532336
69,636230390315637411
69,636230390315742657
69,636230390315847732
69,636230390315952811
69,636230390316057714
69,636230390316162789
69,636230390316263023
69,636230390316367922
69,636230390316468168
69,636230390316573064
69,636230390316683155
69,636230390316788234
69,636230390316893300
69,636230390316993568
69,636230390317098625
69,636230390317203533
69,636230390317308587
69,636230390317413678
69,636230390317518753
69,636230390317623995
69,636230390317729065
69,636230390317834144
69,636230390317939215
69,636230390318049109
69,636230390318154205
69,636230390318259267
69,636230390318364350
69,636230390318469421
69,636230390318574671
69,636230390318679750
69,636230390318784653
69,636230390318889728
69,636230390318994974
69,636230390319099860
69,636230390319205115
69,636230390319310194
69,636230390319415264
69,636230390319520176
69,636230390319625251
69,636230390319730322
69,636230390319835567
69,636230390319940646
69,636230390320050536
69,636230390320155624
69,636230390320260690
69,636230390320365756
69,636230390320470835
69,636230390320580926
69,636230390320691005
69,636230390320796276
69,636230390320901355
69,636230390321006430
69,636230390321111287
69,636230390321216545
69,636230390321321453
70,636230390321426699
70,636230390321531774
70,636230390321636848
70,636230390321741739
70,636230390321851830
70,636230390321956892
70,636230390322062151
70,636230390322167230
70,636230390322272116
70,636230390322377191
70,636230390322482283
70,636230390322587353
70,636230390322692424
70,636230390322797486
70,636230390322902770
70,636230390323012848
70,636230390323117713
70,636230390323227800
70,636230390323333050
70,636230390323438138
70,636230390323543041
70,636230390323648274
70,636230390323753349
70,636230390323858261
70,636230390323963323
70,636230390324068398
70,636230390324173648
70,636230390324283568
70,636230390324388809
70,636230390324493726
70,636230390324598775
70,636230390324703858
70,636230390324808916
70,636230390324914204
70,636230390325019181
70,636230390325124140
70,636230390325229232
70,636230390325334478
70,636230390325439552
70,636230390325544456
70,636230390325649518
70,636230390325754772
70,636230390325859685
70,636230390325964926
70,636230390326069830
70,636230390326175075
70,636230390326279979
70,636230390326390228
70,636230390326500157
70,636230390326605386
70,636230390326710460
70,636230390326815539
70,636230390326920623
70,636230390327030500
70,636230390327140779
70,636230390327250652
70,636230390327355915
70,636230390327460990
70,636230390327565876
70,636230390327671148
70,636230390327776026
70,636230390327881216
70,636230390327991363
70,636230390328096275
70,636230390328201516
70,636230390328306591
70,636230390328411499
70,636230390328516557
70,636230390328626656
70,636230390328736897
70,636230390328841809
70,636230390328952054
70,636230390329056954
70,636230390329162029
70,636230390329267296
70,636230390329377169
71,636230390329482261
71,636230390329587502
71,636230390329692410
71,636230390329797660
71,636230390329902726
71,636230390330007797
71,636230390330112773
71,636230390330217766
71,636230390330322863
71,636230390330428100
71,636230390330537998
71,636230390330643249
71,636230390330748148
71,636230390330853244
71,636230390330958293
71,636230390331063381
71,636230390331168460
71,636230390331278521
71,636230390331388616
71,636230390331493858
71,636230390331603752
71,636230390331713830
71,636230390331818905
71,636230390331929000
71,636230390332034058
71,636230390332139133
71,636230390332244225
71,636230390332349466
71,636230390332454357
71,636230390332559436
71,636230390332664528
71,636230390332769769
71,636230390332874840
71,636230390332979914
71,636230390333084810
71,636230390333189901
71,636230390333294968
71,636230390333400029
71,636230390333505292
71,636230390333610183
71,636230390333715467
71,636230390333820354
71,636230390333925403
71,636230390334030478
71,636230390334135570
71,636230390334240644
71,636230390334350894
71,636230390334460784
71,636230390334566042
71,636230390334670955
71,636230390334776008
71,636230390334886099
71,636230390334991349
71,636230390335101252
71,636230390335206314
71,636230390335311389
71,636230390335411644
71,636230390335516723
71,636230390335621626
71,636230390335726697
71,636230390335836942
71,636230390335942042
71,636230390336047117
71,636230390336151999
71,636230390336257057
71,636230390336362136
71,636230390336467407
71,636230390336572302
71,636230390336677360
71,636230390336782452
71,636230390336887527
71,636230390336992768
71,636230390337097672
71,636230390337202917
71,636230390337307996
71,636230390337417908
71,636230390337522966
71,636230390337628220
71,636230390337733141
71,636230390337843377
71,636230390337953289
71,636230390338058355
71,636230390338163605
71,636230390338268680
71,636230390338373570
71,636230390338483662
71,636230390338588719
71,636230390338693798
71,636230390338799048
71,636230390338904123
70,636230390339009202
70,636230390339119113
70,636230390339224184
70,636230390339334249
70,636230390339444340
70,636230390339549402
70,636230390339654657
70,636230390339759766
70,636230390339864626
70,636230390339969718
70,636230390340074990
70,636230390340180060
70,636230390340284925
70,636230390340395008
70,636230390340500262
70,636230390340605337
70,636230390340710245
70,636230390340815486
70,636230390340920570
70,636230390341025469
70,636230390341130540
70,636230390341240618
70,636230390341345680
70,636230390341450759
70,636230390341560850
70,636230390341665933
70,636230390341770995
70,636230390341876061
70,636230390341981132
70,636230390342091223
70,636230390342196285
70,636230390342301376
70,636230390342406618
70,636230390342511697
70,636230390342616767
70,636230390342726662
70,636230390342831754
70,636230390342936828
70,636230390343042074
70,636230390343146982
70,636230390343252232
70,636230390343362135
70,636230390343467201
70,636230390343572289
70,636230390343677346
70,636230390343782421
70,636230390343887496
70,636230390343992566
70,636230390344102845
70,636230390344212932
70,636230390344317998
70,636230390344422885
70,636230390344527960
70,636230390344633034
70,636230390344738276
70,636230390344843180
70,636230390344948250
70,636230390345053500
70,636230390345163399
70,636230390345268657
70,636230390345378731
70,636230390345483810
70,636230390345588714
70,636230390345693772
70,636230390345798851
70,636230390345903955
70,636230390346008996
70,636230390346119254
70,636230390346224145
70,636230390346329245
70,636230390346434315
70,636230390346544377
70,636230390346649451
70,636230390346754526
70,636230390346859785
70,636230390346964864
70,636230390347069750
70,636230390347174825
70,636230390347284925
70,636230390347390157
70,636230390347500056
70,636230390347605148
70,636230390347710385
70,636230390347815464
70,636230390347920372
71,636230390348025443
71,636230390348130705
71,636230390348235579
71,636230390348340838
71,636230390348450749
71,636230390348555828
71,636230390348660894
71,636230390348765956
71,636230390349026146
71,636230390349136241
71,636230390349241316
71,636230390349346553
71,636230390349451645
71,636230390349556540
71,636230390349661773
71,636230390349766869
71,636230390349871931
71,636230390349977001
71,636230390350081905
71,636230390350186971
71,636230390350297058
71,636230390350402120
71,636230390350507378
71,636230390350612274
71,636230390350717348
71,636230390350822444
71,636230390350927511
71,636230390351032752
71,636230390351137643
71,636230390351242906
71,636230390351347976
71,636230390351453047
71,636230390351562967
71,636230390351668204
71,636230390351773283
71,636230390351878169
71,636230390351983283
71,636230390352088507
71,636230390352193406
71,636230390352303472
71,636230390352408547
71,636230390352508806
71,636230390352618918
71,636230390352728787
71,636230390352839049
71,636230390352943953
71,636230390353044191
71,636230390353149095
71,636230390353254148
71,636230390353359411
71,636230390353464314
71,636230390353569552
71,636230390353674639
71,636230390353784538
71,636230390353894603
71,636230390354004694
71,636230390354109945
71,636230390354214848
71,636230390354320094
71,636230390354430168
71,636230390354535247
71,636230390354640317
71,636230390354750212
71,636230390354855287
71,636230390354960383
71,636230390355065620
71,636230390355170528
71,636230390355275769
71,636230390355380848
71,636230390355485735
71,636230390355590810
71,636230390355695884
71,636230390355801151
71,636230390355911247
71,636230390356016112
71,636230390356121371
71,636230390356226266
71,636230390356336357
71,636230390356441598
71,636230390356546489
71,636230390356651564
71,636230390356756639
71,636230390356861730
71,636230390356971809
71,636230390357076866
71,636230390357181941
71,636230390357287033
71,636230390357397286
71,636230390357502353
71,636230390357607427
71,636230390357712498
71,636230390357817393
71,636230390357922652
71,636230390358027547
71,636230390358137805
71,636230390358242708
68,636230390358352786
68,636230390358457870
68,636230390358562940
68,636230390358668015
68,636230390358773090
68,636230390358878177
68,636230390358988238
68,636230390359093484
68,636230390359203378
68,636230390359308470
68,636230390359413528
68,636230390359518795
68,636230390359623677
68,636230390359728773
68,636230390359833827
68,636230390359938906
68,636230390360043989
68,636230390360149068
68,636230390360259129
68,636230390360369208
68,636230390360469467
68,636230390360574379
68,636230390360679454
68,636230390360784516
68,636230390360889599
68,636230390360994669
68,636230390361099932
68,636230390361204986
68,636230390361309894
68,636230390361415135
68,636230390361520210
68,636230390361625118
68,636230390361730359
68,636230390361835267
68,636230390361940325
68,636230390362045417
68,636230390362150658
68,636230390362255733
68,636230390362360812
68,636230390362465715
68,636230390362570777
68,636230390362675848
68,636230390362780923
68,636230390362886023
68,636230390362991072
68,636230390363096147
68,636230390363201405
68,636230390363306313
68,636230390363416558
68,636230390363521453
68,636230390363626708
68,636230390363731594
68,636230390363841681
68,636230390363951948
68,636230390364062017
68,636230390364166934
68,636230390364272167
68,636230390364382078
68,636230390364487157
68,636230390364592215
68,636230390364692466
68,636230390364797356
68,636230390364902431
68,636230390365007690
68,636230390365112764
68,636230390365217895
68,636230390365322734
68,636230390365432825
68,636230390365537900
68,636230390365643142
68,636230390365748045
68,636230390365853291
68,636230390365958186
68,636230390366063257
68,636230390366168515
68,636230390366273590
68,636230390366378673
68,636230390366483556
68,636230390366588652
68,636230390366693889
68,636230390366803796
68,636230390366909046
68,636230390367014112
68,636230390367119029
67,636230390367224292
67,636230390367329170
67,636230390367434227
67,636230390367544327
67,636230390367654388
67,636230390367764483
67,636230390367874562
67,636230390367979636
67,636230390368089698
67,636230390368199776
67,636230390368305039
67,636230390368410122
67,636230390368515017
67,636230390368620088
67,636230390368725333
67,636230390368830258
67,636230390368935299
67,636230390369040374
67,636230390369145637
67,636230390369250707
67,636230390369355602
67,636230390369460856
67,636230390369565935
67,636230390369675843
67,636230390369780905
67,636230390369885992
67,636230390369991067
67,636230390370096313
67,636230390370201216
67,636230390370306462
67,636230390370411528
67,636230390370516428
67,636230390370626502
67,636230390370736759
67,636230390370841655
67,636230390370951729
67,636230390371056825
67,636230390371161899
67,636230390371266983
67,636230390371372032
67,636230390371477124
67,636230390371582194
67,636230390371687260
67,636230390371792510
67,636230390371902597
67,636230390372007501
67,636230390372112575
67,636230390372217637
67,636230390372322892
67,636230390372427966
67,636230390372533041
67,636230390372638120
67,636230390372743191
67,636230390372848265
67,636230390372958172
67,636230390373063247
67,636230390373168322
67,636230390373278400
67,636230390373383471
67,636230390373488537
67,636230390373598624
67,636230390373703874
67,636230390373808948
67,636230390373914019
67,636230390374018914
67,636230390374124173
67,636230390374229063
67,636230390374339326
67,636230390374444396
67,636230390374554295
67,636230390374659570
67,636230390374764637
68,636230390374869703
68,636230390374979593
68,636230390375089859
68,636230390375194754
68,636230390375299829
68,636230390375404912
68,636230390375515162
68,636230390375620065
68,636230390375725132
68,636230390375830399
68,636230390375935482
68,636230390376040369
68,636230390376145430
68,636230390376250685
68,636230390376355576
68,636230390376460667
68,636230390376565909
68,636230390376670817
68,636230390376775874
68,636230390376881137
68,636230390376986024
68,636230390377091111
68,636230390377196186
68,636230390377301436
68,636230390377406344
68,636230390377511402
68,636230390377611653
68,636230390377716762
68,636230390377821823
68,636230390377926911
68,636230390378031973
68,636230390378136859
68,636230390378241934
68,636230390378352175
68,636230390378457070
68,636230390378562162
68,636230390378667237
68,636230390378772478
68,636230390378877553
68,636230390378982444
68,636230390379087531
68,636230390379192610
68,636230390379297672
68,636230390379402922
68,636230390379507817
68,636230390379612896
68,636230390379717967
68,636230390379823041
68,636230390379928330
68,636230390380038190
68,636230390380143273
68,636230390380248562
68,636230390380353602
68,636230390380458510
68,636230390380568572
68,636230390380673646
68,636230390380778721
68,636230390380883796
68,636230390380988887
68,636230390381089125
68,636230390381194021
68,636230390381299087
68,636230390381404354
68,636230390381509245
68,636230390381609491
68,636230390381714412
68,636230390381814641
68,636230390381919536
68,636230390382024795
68,636230390382129866
68,636230390382234936
68,636230390382339848
68,636230390382445094
68,636230390382550160
68,636230390382655072
68,636230390382760310
68,636230390382865205
68,636230390382975283
68,636230390383085370
68,636230390383190620
68,636230390383295695
68,636230390383400581
68,636230390383510681
68,636230390383615755
68,636230390383721001
68,636230390383825913
68,636230390383930963
68,636230390384036054
68,636230390384146299
68,636230390384251400
68,636230390384356265
68,636230390384461340
68,636230390384566419
68,636230390384671489
68,636230390384776585
68,636230390384881639
68,636230390384986718
68,636230390385091801
68,636230390385196880
68,636230390385306958
68,636230390385417032
68,636230390385522278
68,636230390385627348
68,636230390385732248
68,636230390385842322
68,636230390385947396
68,636230390386052471
68,636230390386157550
68,636230390386262843
68,636230390386367905
68,636230390386472800
68,636230390386578033
68,636230390386683108
68,636230390386793177
68,636230390386898265
68,636230390387003164
68,636230390387108235
68,636230390387213309
68,636230390387318371
68,636230390387423446
68,636230390387528705
68,636230390387633788
68,636230390387738666
68,636230390387843754
68,636230390387948999
68,636230390388053899
68,636230390388159157
68,636230390388264232
68,636230390388374135
68,636230390388479193
68,636230390388589292
68,636230390388694363
68,636230390388799437
68,636230390388904679
68,636230390389009758
68,636230390389114833
68,636230390389224907
68,636230390389329802
68,636230390389435069
68,636230390389539968
68,636230390389645039
68,636230390389750113
68,636230390389855175
68,636230390389960271
68,636230390390065329
68,636230390390170412
68,636230390390275487
68,636230390390380566
68,636230390390485624
68,636230390390590720
68,636230390390695957
68,636230390390801036
68,636230390390906111
68,636230390391011185
68,636230390391121093
68,636230390391226334
68,636230390391331234
68,636230390391436313
68,636230390391541558
68,636230390391646633
68,636230390391751708
68,636230390391856616
68,636230390391961686
68,636230390392066765
68,636230390392176826
68,636230390392281901
68,636230390392386980
68,636230390392492055
68,636230390392597335
68,636230390392702204
68,636230390392807458
68,636230390392912533
68,636230390393017604
68,636230390393122683
68,636230390393227595
68,636230390393332832
68,636230390393437920
68,636230390393542810
68,636230390393652880
68,636230390393757955
68,636230390393863042
68,636230390393968117
68,636230390394073175
68,636230390394178254
68,636230390394278505
68,636230390394383400
68,636230390394488470
68,636230390394593566
68,636230390394698620
68,636230390394803716
68,636230390394908953
68,636230390395013844
68,636230390395119107
68,636230390395224006
68,636230390395329252
68,636230390395434164
68,636230390395539405
68,636230390395644480
68,636230390395749551
68,636230390395854625
68,636230390395959704
68,636230390396064591
68,636230390396169666
68,636230390396274929
68,636230390396379815
68,636230390396484890
68,636230390396590153
68,636230390396695052
68,636230390396800298
68,636230390396910380
68,636230390397015271
68,636230390397120534
68,636230390397225438
68,636230390397330675
68,636230390397435750
68,636230390397540645
68,636230390397645737
68,636230390397750807
68,636230390397855878
68,636230390397960944
68,636230390398066036
68,636230390398171089
68,636230390398281206
68,636230390398391442
68,636230390398496320
68,636230390398606407
68,636230390398711499
68,636230390398821735
68,636230390398931814
68,636230390399036884
68,636230390399141779
68,636230390399252041
68,636230390399357125
68,636230390399462024
68,636230390399572107
68,636230390399677344
68,636230390399782418
68,636230390399887326
68,636230390399992576
68,636230390400097476
68,636230390400202551
68,636230390400307625
68,636230390400412691
68,636230390400517779
68,636230390400622854
68,636230390400727928
68,636230390400833170
68,636230390400938069
68,636230390401043157
68,636230390401148206
68,636230390401253281
68,636230390401363547
68,636230390401468618
68,636230390401573692
68,636230390401678763
68,636230390401783846
68,636230390401888733
68,636230390401993991
68,636230390402099066
68,636230390402204141
68,636230390402314219
67,636230390402424113
67,636230390402529209
67,636230390402634271
67,636230390402739342
67,636230390402844412
67,636230390402954495
67,636230390403064586
67,636230390403169660
67,636230390403274898
67,636230390403379801
67,636230390403484885
67,636230390403589942
67,636230390403700204
67,636230390403805283
67,636230390403910170
67,636230390404015245
67,636230390404120337
67,636230390404225582
67,636230390404330657
67,636230390404440744
67,636230390404550634
67,636230390404655722
67,636230390404760792
67,636230390404866033
67,636230390404971108
67,636230390405075999
67,636230390405181074
67,636230390405281329
67,636230390405386237
67,636230390405491294
67,636230390405596553
67,636230390405701632
67,636230390405806702
67,636230390405911777
67,636230390406021680
67,636230390406126763
67,636230390406232001
67,636230390406337080
67,636230390406447158
67,636230390406552066
67,636230390406657132
67,636230390406762198
67,636230390406862453
67,636230390406967489
67,636230390407072423
67,636230390407177498
67,636230390407282585
67,636230390407387643
67,636230390407492730
67,636230390407597792
67,636230390407702893
67,636230390407807955
67,636230390407913016
67,636230390408018091
67,636230390408123187
67,636230390408228241
67,636230390408333311
67,636230390408438390
67,636230390408543465
67,636230390408653552
67,636230390408763621
67,636230390408873700
67,636230390408978779
67,636230390409088853
67,636230390409193936
67,636230390409298998
67,636230390409404098
67,636230390409509156
67,636230390409614235
67,636230390409724309
67,636230390409829383
67,636230390409934454
67,636230390410039546
67,636230390410144616
67,636230390410249691
67,636230390410354766
67,636230390410459840
67,636230390410564902
67,636230390410670157
67,636230390410775082
67,636230390410880131
67,636230390410985201
67,636230390411090289
67,636230390411195534
67,636230390411300609
67,636230390411405517
68,636230390411510579
68,636230390411615667
68,636230390411725741
68,636230390411830815
68,636230390411935890
68,636230390412045951
68,636230390412151047
68,636230390412256105
68,636230390412361205
68,636230390412466447
68,636230390412576512
68,636230390412681424
68,636230390412786670
68,636230390412891578
68,636230390412996636
68,636230390413101702
68,636230390413211784
68,636230390413316876
68,636230390413421947
68,636230390413532029
68,636230390413637083
68,636230390413742350
68,636230390413847236
68,636230390413952495
68,636230390414057386
68,636230390414162640
68,636230390414267715
68,636230390414372794
68,636230390414477873
68,636230390414582755
68,636230390414687851
68,636230390414792926
68,636230390414903000
68,636230390415008075
68,636230390415113316
68,636230390415218391
68,636230390415323474
68,636230390415428553
68,636230390415533619
68,636230390415638694
68,636230390415743773
68,636230390415853847
68,636230390415958939
68,636230390416063830
68,636230390416168883
68,636230390416279149
68,636230390416384036
68,636230390416489115
68,636230390416594190
68,636230390416699269
68,636230390416804339
68,636230390416909414
68,636230390417014489
68,636230390417124575
68,636230390417229654
68,636230390417334900
68,636230390417439804
68,636230390417544866
68,636230390417649953
68,636230390417755032
68,636230390417860086
68,636230390417965349
68,636230390418070235
68,636230390418175318
68,636230390418285397
68,636230390418395488
68,636230390418500550
68,636230390418605620
68,636230390418710695
68,636230390418815778
68,636230390418920844
68,636230390419025919
68,636230390419130994
68,636230390419236073
68,636230390419341143
68,636230390419446222
68,636230390419551293
68,636230390419656367
68,636230390419761442
68,636230390419866517
68,636230390419971591
68,636230390420076666
68,636230390420181741
68,636230390420286816
68,636230390420396894
68,636230390420501969
68,636230390420607043
68,636230390420712122
68,636230390420817193
68,636230390420922267
68,636230390421027338
68,636230390421132417
68,636230390421237492
67,636230390421342575
67,636230390421447641
67,636230390421557719
67,636230390421662798
67,636230390421767869
67,636230390421872939
67,636230390421978018
67,636230390422083097
67,636230390422188172
67,636230390422293247
67,636230390422398317
67,636230390422503396
67,636230390422608467
67,636230390422713541
67,636230390422818616
67,636230390422923691
67,636230390423028765
67,636230390423133840
67,636230390423238915
67,636230390423343990
67,636230390423454068
67,636230390423559147
67,636230390423664217
67,636230390423769292
67,636230390423874367
67,636230390423984445
67,636230390424094523
67,636230390424199602
67,636230390424304681
67,636230390424409752
67,636230390424514831
67,636230390424619897
67,636230390424724972
67,636230390424830046
67,636230390424935121
67,636230390425040200
67,636230390425145270
67,636230390425250345
67,636230390425355420
67,636230390425460495
67,636230390425565569
67,636230390425670644
67,636230390425775723
67,636230390425880798
67,636230390425990872
67,636230390426095947
67,636230390426201026
67,636230390426306100
67,636230390426416179
67,636230390426526253
67,636230390426631327
67,636230390426736406
67,636230390426841485
67,636230390426946551
67,636230390427051630
67,636230390427156701
67,636230390427261776
67,636230390427366863
67,636230390427476929
67,636230390427582003
67,636230390427692082
67,636230390427802164
67,636230390427907239
67,636230390428012314
67,636230390428122388
67,636230390428227462
67,636230390428332537
67,636230390428437620
67,636230390428542695
67,636230390428647778
67,636230390428757839
67,636230390428862914
67,636230390428967989
67,636230390429073068
67,636230390429178138
67,636230390429283213
67,636230390429388288
67,636230390429493414
67,636230390429598437
67,636230390429703512
67,636230390429808587
67,636230390429913670
67,636230390430018740
67,636230390430123811
67,636230390430228881
67,636230390430333973
67,636230390430444039
67,636230390430549113
67,636230390430654192
67,636230390430759263
67,636230390430869341
67,636230390430974416
67,636230390431079503
67,636230390431184565
67,636230390431289640
64,636230390431394715
64,636230390431499789
64,636230390431609880
64,636230390431714964
64,636230390431820013
64,636230390431925096
64,636230390432030166
64,636230390432135245
64,636230390432240329
64,636230390432345403
64,636230390432450482
64,636230390432555540
64,636230390432660615
64,636230390432765694
64,636230390432870764
64,636230390432975852
64,636230390433080914
64,636230390433185993
64,636230390433291063
64,636230390433396138
64,636230390433501221
64,636230390433611287
64,636230390433716366
64,636230390433821444
64,636230390433931527
64,636230390434036597
64,636230390434146671
64,636230390434251750
64,636230390434356829
64,636230390434461904
64,636230390434566979
64,636230390434672054
64,636230390434777120
64,636230390434882212
64,636230390434987269
64,636230390435092353
64,636230390435202422
64,636230390435307514
64,636230390435412589
64,636230390435517651
64,636230390435622734
64,636230390435732799
64,636230390435837883
64,636230390435942957
64,636230390436048036
64,636230390436153098
64,636230390436258173
64,636230390436358432
64,636230390436468335
64,636230390436573397
64,636230390436678652
64,636230390436788563
64,636230390436898628
64,636230390437003904
64,636230390437108786
64,636230390437213857
64,636230390437319111
64,636230390437429023
64,636230390437534093
64,636230390437639168
64,636230390437744225
64,636230390437849488
64,636230390437954375
64,636230390438064641
64,636230390438174724
64,636230390438284631
64,636230390438389868
64,636230390438494781
64,636230390438599838
64,636230390438704913
64,636230390438810176
64,636230390438915058
64,636230390439020347
64,636230390439125225
64,636230390439230304
64,636230390439335383
64,636230390439440616
64,636230390439545724
64,636230390439650786
64,636230390439755656
64,636230390439860752
64,636230390439965805
64,636230390440070880
64,636230390440176139
64,636230390440281222
64,636230390440386126
64,636230390440491196
64,636230390440601257
64,636230390440711335
64,636230390440816598
64,636230390440926510
61,636230390441031567
61,636230390441136646
61,636230390441241905
61,636230390441346796
61,636230390441452054
61,636230390441562133
61,636230390441667207
61,636230390441772312
61,636230390441877374
61,636230390441987260
61,636230390442092322
61,636230390442197409
61,636230390442307659
61,636230390442412733
61,636230390442517620
61,636230390442622716
61,636230390442727953
61,636230390442833028
61,636230390442938111
61,636230390443048014
61,636230390443153093
61,636230390443258151
61,636230390443363221
61,636230390443468304
61,636230390443573567
61,636230390443678634
61,636230390443783708
61,636230390443888616
61,636230390443993858
61,636230390444103932
61,636230390444208844
61,636230390444314085
61,636230390444419160
61,636230390444524235
61,636230390444629314
61,636230390444739204
61,636230390444844467
61,636230390444949542
61,636230390445054612
61,636230390445164506
61,636230390445269761
61,636230390445374664
61,636230390445479748
61,636230390445589817
61,636230390445695072
61,636230390445799954
61,636230390445905029
61,636230390446010296
61,636230390446120207
61,636230390446225440
61,636230390446330353
61,636230390446435410
61,636230390446540485
61,636230390446645564
61,636230390446750634
61,636230390446855709
61,636230390446960797
61,636230390447066038
61,636230390447170946
61,636230390447276021
61,636230390447381087
61,636230390447491178
61,636230390447596231
61,636230390447701494
61,636230390447806411
61,636230390447911490
61,636230390448016718
61,636230390448121609
61,636230390448231897
61,636230390448336758
61,636230390448446841
61,636230390448552099
61,636230390448656990
61,636230390448762257
61,636230390448867139
61,636230390448967390
61,636230390449072294
61,636230390449182364
61,636230390449287434
61,636230390449392530
61,636230390449492768
61,636230390449597702
61,636230390449702738
61,636230390449807817
61,636230390449912883
61,636230390450017962
61,636230390450123041
61,636230390450228111
61,636230390450333199
62,636230390450438257
62,636230390450543336
62,636230390450653414
62,636230390450758497
62,636230390450863580
62,636230390450968638
62,636230390451073713
62,636230390451178783
62,636230390451283866
62,636230390451388945
62,636230390451494020
62,636230390451599078
62,636230390451704174
62,636230390451809240
62,636230390451914306
62,636230390452024393
62,636230390452129464
62,636230390452234534
62,636230390452339609
62,636230390452444688
62,636230390452554766
62,636230390452664849
62,636230390452769919
62,636230390452879997
62,636230390452985068
62,636230390453090138
62,636230390453195217
62,636230390453300296
62,636230390453405379
62,636230390453510450
62,636230390453615520
62,636230390453720595
62,636230390453830673
62,636230390453935757
62,636230390454040823
62,636230390454145893
62,636230390454246178
62,636230390454351039
62,636230390454461126
62,636230390454566372
62,636230390454676454
62,636230390454781341
62,636230390454886437
62,636230390454991507
62,636230390455096569
62,636230390455201832
62,636230390455311915
62,636230390455416977
62,636230390455522051
62,636230390455626959
62,636230390455732214
62,636230390455842108
62,636230390455952182
62,636230390456057257
62,636230390456162344
62,636230390456267398
62,636230390456372481
62,636230390456482568
62,636230390456587642
62,636230390456692888
62,636230390456797792
62,636230390456902858
62,636230390457007928
62,636230390457112999
62,636230390457218074
62,636230390457328156
62,636230390457433227
62,636230390457538306
62,636230390457643385
62,636230390457748459
62,636230390457853530
62,636230390457963612
62,636230390458068687
62,636230390458173757
62,636230390458278836
62,636230390458383907
62,636230390458493985
62,636230390458604068
62,636230390458709138
62,636230390458814217
63,636230390458919292
63,636230390459024362
63,636230390459134445
63,636230390459239520
63,636230390459344603
63,636230390459449669
63,636230390459554739
63,636230390459659814
63,636230390459764885
63,636230390459869964
63,636230390459980042
63,636230390460085117
63,636230390460190191
63,636230390460295266
63,636230390460400341
63,636230390460505420
63,636230390460610490
63,636230390460715573
63,636230390460820640
63,636230390460925714
63,636230390461030789
63,636230390461135864
63,636230390461240939
63,636230390461346013
63,636230390461451084
63,636230390461556163
63,636230390461661237
63,636230390461766312
63,636230390461871387
63,636230390461976462
63,636230390462081536
63,636230390462186615
63,636230390462291690
63,636230390462396765
63,636230390462501844
63,636230390462606910
63,636230390462711989
63,636230390462817059
63,636230390462922138
63,636230390463027209
63,636230390463132283
63,636230390463237358
63,636230390463342433
63,636230390463452515
63,636230390463557590
63,636230390463667668
63,636230390463772743
63,636230390463877818
63,636230390463982888
63,636230390464092967
63,636230390464198041
63,636230390464303120
63,636230390464408195
63,636230390464513270
63,636230390464623348
63,636230390464728427
63,636230390464838497
63,636230390464943576
63,636230390465048651
63,636230390465153725
63,636230390465258796
63,636230390465363875
63,636230390465468949
63,636230390465574020
63,636230390465679095
63,636230390465784169
63,636230390465889248
63,636230390465999322
63,636230390466104401
63,636230390466209472
63,636230390466314555
63,636230390466419621
63,636230390466524696
63,636230390466629771
63,636230390466734845
63,636230390466839920
63,636230390466950003
63,636230390467055082
63,636230390467160161
63,636230390467265231
63,636230390467370301
63,636230390467475376
63,636230390467580447
63,636230390467685521
64,636230390467790596
64,636230390467895671
64,636230390468000750
64,636230390468105825
64,636230390468210899
64,636230390468315970
64,636230390468426052
64,636230390468531131
64,636230390468636206
64,636230390468741272
64,636230390468846347
64,636230390468951426
64,636230390469056505
64,636230390469166575
64,636230390469271649
64,636230390469376728
64,636230390469481807
64,636230390469586873
64,636230390469691978
64,636230390469797027
64,636230390469902098
64,636230390470007177
64,636230390470117259
64,636230390470227329
64,636230390470332404
64,636230390470437483
64,636230390470542557
64,636230390470652640
64,636230390470757719
64,636230390470867780
64,636230390470972868
64,636230390471082933
64,636230390471188016
64,636230390471293100
64,636230390471403191
64,636230390471508235
64,636230390471613332
64,636230390471718402
64,636230390471823468
64,636230390471928534
64,636230390472033613
64,636230390472138701
64,636230390472243951
64,636230390472349030
64,636230390472458916
64,636230390472563995
64,636230390472669258
64,636230390472774320
64,636230390472879227
64,636230390472984289
64,636230390473084544
64,636230390473189435
64,636230390473294527
64,636230390473399769
64,636230390473504668
64,636230390473609747
64,636230390473719834
64,636230390473824900
64,636230390473930141
64,636230390474035037
64,636230390474140111
64,636230390474245199
64,636230390474350445
64,636230390474455331
64,636230390474560598
64,636230390474665485
64,636230390474770577
64,636230390474875822
64,636230390474980893
64,636230390475085801
64,636230390475190871
64,636230390475296117
64,636230390475401042
64,636230390475506100
64,636230390475616165
64,636230390475721240
64,636230390475826503
64,636230390475931385
64,636230390476036460
66,636230390476141714
66,636230390476246622
66,636230390476356867
66,636230390476461779
66,636230390476567029
66,636230390476671916
66,636230390476777170
66,636230390476882245
66,636230390476987136
66,636230390477092390
66,636230390477197302
66,636230390477302356
66,636230390477407439
66,636230390477512514
66,636230390477617593
66,636230390477722663
66,636230390477827734
66,636230390477932817
66,636230390478042887
66,636230390478153153
66,636230390478258040
66,636230390478363127
66,636230390478468381
66,636230390478573264
66,636230390478673519
66,636230390478778589
66,636230390478883501
66,636230390478988576
66,636230390479093818
66,636230390479198888
66,636230390479303967
66,636230390479408866
66,636230390479513928
66,636230390479619012
66,636230390479719271
66,636230390479824153
66,636230390479929416
66,636230390480034303
66,636230390480139377
66,636230390480244465
66,636230390480349544
66,636230390480454785
66,636230390480559869
66,636230390480669938
66,636230390480780025
66,636230390480884908
66,636230390480989982
66,636230390481095057
66,636230390481200324
66,636230390481305395
66,636230390481410461
66,636230390481515356
66,636230390481620443
66,636230390481725689
66,636230390481830593
66,636230390481935672
66,636230390482040729
66,636230390482150803
66,636230390482256088
66,636230390482360953
66,636230390482466049
66,636230390482571308
66,636230390482676190
66,636230390482781273
66,636230390482886356
66,636230390482991594
66,636230390483096660
66,636230390483201564
66,636230390483306809
66,636230390483411884
66,636230390483516796
66,636230390483622033
66,636230390483732116
66,636230390483837007
66,636230390483937262
66,636230390484042153
66,636230390484147245
66,636230390484252319
66,636230390484362376
66,636230390484467643
66,636230390484572744
66,636230390484677605
66,636230390484782696
66,636230390484887767
66,636230390484993013
66,636230390485098083
66,636230390485202991
66,636230390485308237
66,636230390485413320
66,636230390485518382
66,636230390485623461
66,636230390485728540
66,636230390485833610
66,636230390485938685
66,636230390486048584
66,636230390486153654
66,636230390486258917
66,636230390486368803
66,636230390486478886
66,636230390486588964
66,636230390486694039
66,636230390486799306
66,636230390486904368
66,636230390487009447
66,636230390487119350
66,636230390487224612
66,636230390487329670
66,636230390487434749
66,636230390487539734
66,636230390487644898
66,636230390487749806
66,636230390487855056
66,636230390487959934
66,636230390488065022
66,636230390488170276
66,636230390488275347
66,636230390488380451
66,636230390488485312
66,636230390488590601
66,636230390488695650
66,636230390488805720
66,636230390488910632
66,636230390489015689
66,636230390489120777
66,636230390489226019
66,636230390489330926
66,636230390489441180
66,636230390489551066
66,636230390489661337
66,636230390489766407
66,636230390489871482
66,636230390489976381
66,636230390490081460
66,636230390490186522
66,636230390490291592
66,636230390490401919
66,636230390490511963
66,636230390490616828
66,636230390490722087
66,636230390490832161
66,636230390490937077
66,636230390491047314
66,636230390491152397
66,636230390491257296
66,636230390491367379
66,636230390491472625
66,636230390491582528
66,636230390491687589
66,636230390491792848
66,636230390491897923
66,636230390492002993
66,636230390492107897
66,636230390492213151
66,636230390492323046
66,636230390492428116
66,636230390492533191
66,636230390492633467
66,636230390492738337
66,636230390492848419
66,636230390492953511
66,636230390493058560
66,636230390493163814
66,636230390493268710
66,636230390493373977
66,636230390493479056
66,636230390493589138
66,636230390493694016
66,636230390493799108
66,636230390493904179
66,636230390494014240
67,636230390494119319
67,636230390494224393
67,636230390494329481
67,636230390494434543
67,636230390494539618
67,636230390494644692
67,636230390494749784
67,636230390494855026
67,636230390494965104
67,636230390495075182
67,636230390495180094
67,636230390495285161
67,636230390495390240
67,636230390495495485
67,636230390495600389
67,636230390495705442
67,636230390495815705
67,636230390495925607
67,636230390496030678
67,636230390496135770
67,636230390496240827
67,636230390496350918
67,636230390496461168
67,636230390496566059
67,636230390496671317
67,636230390496776225
67,636230390496881278
67,636230390496986375
67,636230390497091428
67,636230390497196507
67,636230390497301766
67,636230390497406840
67,636230390497511731
67,636230390497616994
67,636230390497721876
67,636230390497826951
67,636230390497932047
67,636230390498037122
67,636230390498142368
67,636230390498247254
67,636230390498357345
67,636230390498462420
67,636230390498567495
67,636230390498677573
67,636230390498787822
67,636230390498892927
67,636230390498997788
67,636230390499102875
67,636230390499208121
67,636230390499313192
67,636230390499423274
67,636230390499528357
67,636230390499633432
67,636230390499738314
67,636230390499843573
67,636230390499948460
67,636230390500053551
67,636230390500158801
67,636230390500263701
67,636230390500368955
67,636230390500474026
67,636230390500583929
67,636230390500688995
67,636230390500794253
67,636230390500899345
67,636230390501009428
67,636230390501119309
67,636230390501224551
67,636230390501329463
67,636230390501434516
67,636230390501539595
67,636230390501644858
67,636230390501749762
67,636230390501855008
67,636230390501960078
67,636230390502064986
67,636230390502175231
67,636230390502280302
67,636230390502387429
67,636230390502492692
67,636230390502597591
67,636230390502702662
67,636230390502812749
67,636230390502917832
67,636230390503027889
67,636230390503138189
67,636230390503243050
67,636230390503343301
67,636230390503448183
67,636230390503553275
67,636230390503658521
67,636230390503763429
67,636230390503868486
67,636230390503968746
67,636230390504073632
67,636230390504178724
67,636230390504283778
67,636230390504389036
67,636230390504494119
67,636230390504599010
67,636230390504704102
67,636230390504809168
67,636230390504914256
67,636230390505019484
67,636230390505124589
67,636230390505234466
67,636230390505344549
67,636230390505449799
67,636230390505554698
67,636230390505659769
67,636230390505769851
67,636230390505880096
67,636230390505984992
67,636230390506090083
67,636230390506195154
67,636230390506300404
67,636230390506405290
67,636230390506510545
67,636230390506615457
67,636230390506720532
67,636230390506825602
67,636230390506930852
67,636230390507040759
67,636230390507146009
67,636230390507251076
67,636230390507361150
67,636230390507466224
67,636230390507571132
67,636230390507676378
67,636230390507781269
67,636230390507886339
67,636230390507991611
67,636230390508096673
67,636230390508201747
67,636230390508311830
67,636230390508416905
67,636230390508526987
67,636230390508632058
67,636230390508736949
67,636230390508842028
67,636230390508947098
67,636230390509052177
67,636230390509157431
67,636230390509262510
67,636230390509372439
67,636230390509477488
67,636230390509587570
67,636230390509692812
67,636230390509797891
67,636230390509907965
67,636230390510012852
67,636230390510123114
67,636230390510228197
67,636230390510333276
67,636230390510438154
67,636230390510548254
67,636230390510658499
67,636230390510763573
67,636230390510868477
67,636230390510973723
67,636230390511078622
67,636230390511183693
67,636230390511293762
67,636230390511398846
67,636230390511503933
67,636230390511609188
67,636230390511714083
67,636230390511824157
67,636230390511929223
67,636230390512034306
67,636230390512139368
67,636230390512244631
67,636230390512349535
67,636230390512454776
67,636230390512559851
67,636230390512664926
67,636230390512769829
67,636230390512874917
67,636230390512980158
67,636230390513085049
67,636230390513190124
67,636230390513295190
66,636230390513400453
66,636230390513505356
66,636230390513610418
66,636230390513715703
66,636230390513820756
66,636230390513930830
66,636230390514035905
66,636230390514145812
66,636230390514255869
66,636230390514365951
66,636230390514471214
66,636230390514576101
66,636230390514681188
66,636230390514786272
66,636230390514891432
66,636230390514996395
66,636230390515106666
66,636230390515211561
66,636230390515316811
66,636230390515421706
66,636230390515526790
66,636230390515631873
66,636230390515736926
66,636230390515842211
66,636230390515952263
66,636230390516057158
66,636230390516162413
66,636230390516267483
66,636230390516372562
66,636230390516477637
66,636230390516582523
66,636230390516682791
66,636230390516787669
66,636230390516892765
66,636230390516993003
66,636230390517097894
66,636230390517202965
66,636230390517308052
66,636230390517413123
66,636230390517518197
66,636230390517623268
66,636230390517728424
66,636230390517833413
66,636230390517938496
66,636230390518043579
66,636230390518153645
66,636230390518258732
66,636230390518363978
66,636230390518469057
66,636230390518574128
66,636230390518679202
66,636230390518789110
66,636230390518889352
66,636230390518999246
66,636230390519104338
66,636230390519209575
66,636230390519314654
66,636230390519419733
66,636230390519524615
66,636230390519629703
66,636230390519734962
66,636230390519840045
66,636230390519949939
66,636230390520055018
66,636230390520160260
66,636230390520265163
66,636230390520370414
66,636230390520475480
66,636230390520585391
66,636230390520695448
66,636230390520800536
66,636230390520905615
66,636230390521010856
66,636230390521115939
66,636230390521221010
66,636230390521330913
66,636230390521435979
66,636230390521541054
66,636230390521651140
66,636230390521756224
66,636230390521861465
66,636230390521966356
66,636230390522071444
66,636230390522176506
66,636230390522281580
66,636230390522386668
66,636230390522491725
66,636230390522597001
66,636230390522701896
66,636230390522806954
66,636230390522912212
66,636230390523017296
66,636230390523122191
66,636230390523227437
66,636230390523332349
66,636230390523437415
66,636230390523542490
66,636230390523647564
66,636230390523752622
66,636230390523857710
66,636230390523962793
66,636230390524067850
66,636230390524173139
66,636230390524283012
66,636230390524388095
66,636230390524493149
66,636230390524598228
66,636230390524708319
66,636230390524813560
66,636230390524918468
66,636230390525023710
66,636230390525128605
66,636230390525233675
66,636230390525338942
66,636230390525443846
66,636230390525549088
66,636230390525653978
66,636230390525764245
66,636230390525869260
66,636230390525974228
66,636230390526079298
66,636230390526184373
66,636230390526289447
66,636230390526394715
66,636230390526499593
66,636230390526604838
66,636230390526709917
66,636230390526814988
66,636230390526920062
66,636230390527025133
66,636230390527130041
66,636230390527240299
66,636230390527345365
66,636230390527450269
66,636230390527560518
66,636230390527665593
66,636230390527770501
66,636230390527875562
66,636230390527980633
66,636230390528085896
66,636230390528190795
66,636230390528295861
66,636230390528400949
66,636230390528506002
66,636230390528611265
66,636230390528716152
66,636230390528821248
66,636230390528926301
66,636230390529031573
66,636230390529136451
66,636230390529241726
66,636230390529346797
66,636230390529456871
66,636230390529561945
66,636230390529666845
66,636230390529772091
66,636230390529877170
66,636230390529982103
67,636230390530087135
67,636230390530192223
67,636230390530302468
67,636230390530407376
67,636230390530512626
67,636230390530617534
67,636230390530717763
67,636230390530822671
67,636230390530927913
67,636230390531032987
67,636230390531137891
67,636230390531243141
67,636230390531353215
67,636230390531458110
67,636230390531563181
67,636230390531668439
67,636230390531773330
67,636230390531878593
67,636230390531983484
67,636230390532088580
67,636230390532193813
67,636230390532298708
67,636230390532403783
67,636230390532509041
67,636230390532613941
67,636230390532724186
67,636230390532829269
67,636230390532939168
67,636230390533049250
67,636230390533154312
67,636230390533259575
67,636230390533364641
67,636230390533469532
67,636230390533574799
67,636230390533679686
67,636230390533784773
67,636230390533889852
67,636230390533990094
67,636230390534094981
67,636230390534200056
67,636230390534305143
67,636230390534410222
67,636230390534515275
67,636230390534620359
67,636230390534725442
67,636230390534830718
67,636230390534935792
67,636230390535040653
67,636230390535145741
67,636230390535250987
67,636230390535356061
67,636230390535466144
67,636230390535571210
67,636230390535676118
67,636230390535786201
67,636230390535891442
67,636230390536001349
67,636230390536106411
67,636230390536211670
67,636230390536321569
67,636230390536426635
67,636230390536536722
67,636230390536646979
67,636230390536751866
67,636230390536856941
67,636230390536962199
67,636230390537067107
67,636230390537177382
67,636230390537287247
67,636230390537392334
67,636230390537492576
67,636230390537597467
67,636230390537702551
67,636230390537807621
67,636230390537912700
67,636230390538017783
67,636230390538122841
67,636230390538227933
67,636230390538333183
67,636230390538438065
67,636230390538543328
67,636230390538653432
67,636230390538758306
67,636230390538863556
67,636230390538968639
67,636230390539073709
67,636230390539178613
67,636230390539283666
67,636230390539388762
67,636230390539493820
67,636230390539599083
67,636230390539704149
67,636230390539809245
66,636230390539914307
66,636230390540019198
66,636230390540124448
66,636230390540229364
66,636230390540334606
66,636230390540439493
66,636230390540544597
66,636230390540654834
66,636230390540764737
66,636230390540869799
66,636230390540974873
66,636230390541084964
66,636230390541190206
66,636230390541295114
66,636230390541405363
66,636230390541510267
66,636230390541615346
66,636230390541720609
66,636230390541830678
66,636230390541935552
66,636230390542040815
66,636230390542145706
66,636230390542250781
66,636230390542355851
66,636230390542465946
66,636230390542571025
66,636230390542676096
66,636230390542781342
66,636230390542886241
66,636230390542991307
66,636230390543096395
66,636230390543206469
66,636230390543306745
66,636230390543411623
66,636230390543516694
66,636230390543621755
66,636230390543731842
66,636230390543836926
66,636230390543941992
66,636230390544047242
66,636230390544152154
66,636230390544257203
66,636230390544362286
66,636230390544472356
66,636230390544577623
66,636230390544687693
66,636230390544792597
66,636230390544897667
66,636230390545002738
66,636230390545107812
66,636230390545213092
66,636230390545323166
66,636230390545428036
66,636230390545533128
66,636230390545638207
66,636230390545743268
66,636230390545848518
66,636230390545958601
66,636230390546063676
66,636230390546173566
66,636230390546278658
66,636230390546383720
66,636230390546488978
69,636230390546594057
69,636230390546698944
69,636230390546804202
69,636230390546909277
69,636230390547014164
69,636230390547119260
69,636230390547224322
69,636230390547329584
69,636230390547434655
69,636230390547539747
69,636230390547649812
69,636230390547759912
69,636230390547864957
69,636230390547969865
69,636230390548075115
69,636230390548180005
69,636230390548285089
69,636230390548390163
69,636230390548495221
69,636230390548600309
69,636230390548705375
69,636230390548815637
69,636230390548920523
69,636230390549030598
69,636230390549135685
69,636230390549240764
69,636230390549345822
69,636230390549456114
69,636230390549561184
69,636230390549666071
69,636230390549776316
69,636230390549881207
69,636230390549986290
69,636230390550091360
69,636230390550196435
69,636230390550301510
69,636230390550411584
69,636230390550511835
69,636230390550616734
69,636230390550721993
69,636230390550826896
69,636230390550931950
69,636230390551037037
69,636230390551137301
69,636230390551242183
69,636230390551347262
69,636230390551452504
69,636230390551562419
69,636230390551667657
69,636230390551772757
69,636230390551877639
69,636230390551982697
69,636230390552087793
69,636230390552193034
69,636230390552297942
69,636230390552403017
69,636230390552508079
69,636230390552613149
69,636230390552723407
69,636230390552828302
69,636230390552928557
69,636230390553033444
69,636230390553138523
69,636230390553243782
69,636230390553348677
69,636230390553453751
69,636230390553558839
69,636230390553663914
69,636230390553769155
69,636230390553874046
69,636230390553979129
69,636230390554084208
69,636230390554189287
69,636230390554294524
69,636230390554399612
69,636230390554504682
69,636230390554609565
69,636230390554714823
71,636230390554819736
71,636230390554924981
71,636230390555029868
71,636230390555135131
71,636230390555240060
71,636230390555345272
71,636230390555450192
71,636230390555560258
71,636230390555665504
71,636230390555770578
71,636230390555875670
71,636230390555985642
71,636230390556090635
71,636230390556200701
71,636230390556305771
71,636230390556410854
71,636230390556516117
71,636230390556621016
71,636230390556731086
71,636230390556836165
71,636230390556946415
71,636230390557051489
71,636230390557161568
71,636230390557271470
71,636230390557381536
71,636230390557486777
71,636230390557591694
71,636230390557696764
71,636230390557801839
71,636230390557906918
71,636230390558007169
71,636230390558112244
71,636230390558217152
71,636230390558322209
71,636230390558427280
71,636230390558532542
71,636230390558637617
71,636230390558742517
71,636230390558852766
71,636230390558957678
71,636230390559067735
71,636230390559172814
71,636230390559273069
71,636230390559377977
71,636230390559478224
71,636230390559583123
71,636230390559688185
71,636230390559788440
71,636230390559893331
71,636230390559998414
71,636230390560098660
71,636230390560203547
71,636230390560308626
71,636230390560418721
71,636230390560523971
71,636230390560629038
71,636230390560738949
71,636230390560839178
71,636230390560944253
71,636230390561054165
71,636230390561154403
71,636230390561259482
71,636230390561364377
71,636230390561469443
71,636230390561579525
71,636230390561684660
71,636230390561789692
71,636230390561894762
71,636230390562004824
71,636230390562110091
71,636230390562214973
71,636230390562320236
71,636230390562430314
71,636230390562535218
71,636230390562640464
73,636230390562745547
73,636230390562850446
73,636230390562955692
73,636230390563060609
73,636230390563170665
73,636230390563275744
73,636230390563380802
73,636230390563485902
73,636230390563590956
73,636230390563696039
73,636230390563801110
73,636230390563906180
73,636230390564016258
73,636230390564121329
73,636230390564226626
73,636230390564331666
73,636230390564436561
73,636230390564541628
73,636230390564646890
73,636230390564751965
73,636230390564856852
73,636230390564962127
73,636230390565067189
73,636230390565172102
73,636230390565277343
73,636230390565387417
73,636230390565492321
73,636230390565602570
73,636230390565707465
73,636230390565817561
73,636230390565922618
73,636230390566022869
73,636230390566127755
73,636230390566233035
73,636230390566337905
73,636230390566442997
73,636230390566548063
73,636230390566653146
73,636230390566758255
73,636230390566868475
73,636230390566973545
73,636230390567078620
73,636230390567188527
73,636230390567293585
73,636230390567403860
73,636230390567508926
73,636230390567613812
73,636230390567718891
73,636230390567828965
73,636230390567934061
73,636230390568039119
73,636230390568144189
73,636230390568249268
73,636230390568354343
73,636230390568464627
73,636230390568569706
73,636230390568674776
73,636230390568784662
73,636230390568889903
73,636230390568994978
73,636230390569100066
73,636230390569205128
73,636230390569310207
73,636230390569415110
73,636230390569520172
73,636230390569625243
73,636230390569735518
73,636230390569840413
73,636230390569945479
73,636230390570045738
73,636230390570150620
73,636230390570255691
73,636230390570360783
73,636230390570465862
73,636230390570575919
73,636230390570681010
73,636230390570786286
73,636230390570891160
73,636230390570996410
73,636230390571101485
73,636230390571206388
73,636230390571311626
73,636230390571416700
73,636230390571521784
73,636230390571626687
73,636230390571731933
73,636230390571836820
73,636230390571947082
73,636230390572051985
73,636230390572157056
73,636230390572262122
73,636230390572367201
73,636230390572472276
73,636230390572572556
73,636230390572677417
73,636230390572782492
73,636230390572887580
73,636230390572992838
73,636230390573097733
73,636230390573202979
73,636230390573308045
73,636230390573412940
73,636230390573518028
73,636230390573623094
73,636230390573728348
73,636230390573833261
73,636230390573943501
73,636230390574048580
73,636230390574153475
73,636230390574253731
73,636230390574358626
73,636230390574463688
73,636230390574568946
73,636230390574679024
73,636230390574784108
73,636230390574889007
73,636230390574989245
73,636230390575099135
73,636230390575204398
73,636230390575314476
73,636230390575419380
73,636230390575529467
73,636230390575634516
73,636230390575739779
73,636230390575844853
73,636230390575949924
73,636230390576054815
73,636230390576159907
73,636230390576269972
73,636230390576375047
73,636230390576480121
73,636230390576585209
73,636230390576690459
73,636230390576795538
73,636230390576900600
73,636230390577005679
73,636230390577110754
73,636230390577215794
73,636230390577320715
73,636230390577425986
73,636230390577530886
73,636230390577635960
73,636230390577741202
73,636230390577851280
73,636230390577956355
73,636230390578061434
73,636230390578166513
73,636230390578271408
73,636230390578376466
73,636230390578481557
73,636230390578586624
73,636230390578691690
73,636230390578801961
73,636230390578907069
73,636230390579011918
73,636230390579117202
73,636230390579222080
73,636230390579327142
73,636230390579437408
73,636230390579547315
73,636230390579652390
73,636230390579757636
73,636230390579862540
73,636230390579967781
73,636230390580072860
73,636230390580177943
73,636230390580283005
73,636230390580387900
73,636230390580492984
73,636230390580598075
72,636230390580703146
72,636230390580808272
72,636230390580913287
72,636230390581018344
72,636230390581123440
72,636230390581228678
72,636230390581333586
72,636230390581438647
72,636230390581548739
72,636230390581653796
72,636230390581759059
72,636230390581863954
72,636230390581969204
72,636230390582074099
72,636230390582179187
72,636230390582284262
72,636230390582389512
72,636230390582494599
72,636230390582599477
72,636230390582704552
72,636230390582814626
72,636230390582924700
72,636230390583029779
72,636230390583130064
72,636230390583235143
72,636230390583340004
72,636230390583445262
72,636230390583555148
72,636230390583655408
72,636230390583760311
72,636230390583865557
72,636230390583970632
72,636230390584075523
72,636230390584180610
72,636230390584285672
72,636230390584395746
72,636230390584501009
72,636230390584610908
72,636230390584715978
72,636230390584826056
72,636230390584931131
72,636230390585036236
72,636230390585141464
72,636230390585246543
72,636230390585351614
72,636230390585456505
72,636230390585561780
72,636230390585666838
72,636230390585771917
72,636230390585876987
72,636230390585981883
72,636230390586086949
72,636230390586192045
72,636230390586297098
72,636230390586402177
72,636230390586507273
72,636230390586617514
72,636230390586722422
72,636230390586827501
72,636230390586932742
72,636230390587037847
72,636230390587142892
72,636230390587247796
72,636230390587352866
72,636230390587457928
72,636230390587562998
72,636230390587668077
72,636230390587778339
72,636230390587883230
72,636230390587988493
72,636230390588093397
72,636230390588198634
72,636230390588303529
72,636230390588408801
72,636230390588513696
72,636230390588618766
72,636230390588723841
72,636230390588828907
72,636230390588929158
72,636230390589034233
72,636230390589139312
72,636230390589244211
72,636230390589354469
72,636230390589459556
72,636230390589564422
72,636230390589669496
72,636230390589774575
72,636230390589879663
72,636230390589984742
72,636230390590089799
72,636230390590194874
72,636230390590300128
72,636230390590405212
72,636230390590510282
72,636230390590615169
72,636230390590720299
72,636230390590825318
72,636230390590930393
72,636230390591035472
72,636230390591140568
72,636230390591245810
72,636230390591350880
72,636230390591455976
72,636230390591560858
72,636230390591666108
72,636230390591775994
72,636230390591881257
72,636230390591986165
72,636230390592091231
72,636230390592196494
72,636230390592301368
72,636230390592406648
72,636230390592511705
72,636230390592616784
72,636230390592721684
72,636230390592826741
72,636230390592931820
72,636230390593037079
72,636230390593142154
72,636230390593247053
72,636230390593352303
72,636230390593457378
72,636230390593562286
72,636230390593667361
72,636230390593772435
72,636230390593882509
72,636230390593987567
72,636230390594097649
72,636230390594202737
72,636230390594307987
72,636230390594413058
72,636230390594518132
72,636230390594623036
72,636230390594733285
72,636230390594838360
72,636230390594943447
72,636230390595053513
72,636230390595158417
72,636230390595263483
72,636230390595368566
72,636230390595473628
72,636230390595578887
72,636230390595688781
72,636230390595794040
72,636230390595898999
72,636230390596004018
72,636230390596109101
72,636230390596214338
72,636230390596319242
72,636230390596424488
72,636230390596529563
72,636230390596634646
72,636230390596739524
72,636230390596849619
72,636230390596954677
72,636230390597059777
72,636230390597164839
72,636230390597269914
72,636230390597375006
72,636230390597480059
72,636230390597585134
72,636230390597690213
72,636230390597795471
72,636230390597900366
72,636230390598005433
72,636230390598110695
72,636230390598220765
72,636230390598325836
72,636230390598430735
72,636230390598535805
72,636230390598640884
72,636230390598741135
72,636230390598846030
72,636230390598951118
72,636230390599056176
72,636230390599166433
72,636230390599271329
72,636230390599376403
72,636230390599481487
72,636230390599586557
68,636230390599691807
68,636230390599796886
68,636230390599901982
68,636230390600006864
68,636230390600117114
68,636230390600222188
68,636230390600332079
68,636230390600437158
68,636230390600542228
68,636230390600647307
68,636230390600752566
68,636230390600862460
68,636230390600967548
68,636230390601072798
68,636230390601177688
68,636230390601282759
68,636230390601387846
68,636230390601492921
68,636230390601598167
68,636230390601703058
68,636230390601808150
68,636230390601913400
68,636230390602018462
68,636230390602123352
68,636230390602228620
68,636230390602333690
68,636230390602438594
68,636230390602543656
68,636230390602648743
68,636230390602753993
68,636230390602864076
68,636230390602968975
68,636230390603074050
68,636230390603179296
68,636230390603284186
68,636230390603394273
68,636230390603499335
68,636230390603604427
68,636230390603709485
68,636230390603819571
68,636230390603924826
68,636230390604029721
68,636230390604134783
68,636230390604239862
68,636230390604345137
68,636230390604450195
68,636230390604555103
68,636230390604660161
68,636230390604765248
68,636230390604870494
68,636230390604975569
68,636230390605080472
68,636230390605185534
68,636230390605290626
68,636230390605395868
68,636230390605500771
68,636230390605606017
68,636230390605710921
68,636230390605820982
68,636230390605926082
68,636230390606031319
68,636230390606136219
68,636230390606241289
68,636230390606351359
68,636230390606456446
68,636230390606561521
68,636230390606671587
68,636230390606776670
68,636230390606881753
68,636230390606986811
68,636230390607091898
68,636230390607196969
68,636230390607302056
68,636230390607407302
68,636230390607512385
68,636230390607617268
68,636230390607722522
68,636230390607827413
68,636230390607932496
68,636230390608042579
68,636230390608152828
68,636230390608257736
68,636230390608362794
68,636230390608472868
68,636230390608577972
66,636230390608683205
66,636230390608788100
66,636230390608893355
66,636230390608998442
66,636230390609103337
66,636230390609208485
66,636230390609313653
66,636230390609418540
66,636230390609523807
66,636230390609628707
66,636230390609733948
66,636230390609838847
66,636230390609943926
66,636230390610048993
66,636230390610154247
66,636230390610259326
66,636230390610364221
66,636230390610474291
66,636230390610579596
66,636230390610684445
66,636230390610789532
66,636230390610894607
66,636230390611004685
66,636230390611109764
66,636230390611214834
66,636230390611320076
66,636230390611429975
66,636230390611535062
66,636230390611640137
66,636230390611745199
66,636230390611855461
66,636230390611960356
66,636230390612060607
66,636230390612170506
66,636230390612275576
66,636230390612380668
66,636230390612485725
66,636230390612590822
66,636230390612696063
66,636230390612806137
66,636230390612911024
66,636230390613016115
66,636230390613121182
66,636230390613226265
66,636230390613331344
66,636230390613436414
66,636230390613541502
66,636230390613646564
66,636230390613751814
66,636230390613861700
66,636230390613966967
66,636230390614071875
66,636230390614176937
66,636230390614282020
66,636230390614387278
66,636230390614492152
66,636230390614597432
66,636230390614707523
66,636230390614817396
66,636230390614922646
66,636230390615027713
66,636230390615137607
66,636230390615242866
66,636230390615352948
66,636230390615457856
66,636230390615562909
66,636230390615672988
66,636230390615778079
66,636230390615883158
66,636230390615988229
66,636230390616093436
66,636230390616198370
66,636230390616308457
66,636230390616408720
66,636230390616513590
66,636230390616618853
66,636230390616723752
66,636230390616829002
66,636230390616933897
66,636230390617034144
66,636230390617139218
66,636230390617244131
66,636230390617349368
66,636230390617454442
66,636230390617564358
66,636230390617669429
66,636230390617774550
66,636230390617879745
66,636230390617984640
66,636230390618089710
66,636230390618194789
66,636230390618299877
64,636230390618400115
64,636230390618505006
64,636230390618610081
64,636230390618720163
64,636230390618825417
64,636230390618930492
64,636230390619040566
64,636230390619145474
64,636230390619250720
64,636230390619355611
64,636230390619465873
64,636230390619570948
64,636230390619675834
64,636230390619785934
64,636230390619891175
64,636230390619996062
64,636230390620106328
64,636230390620211412
64,636230390620316482
64,636230390620421377
64,636230390620526623
64,636230390620631531
64,636230390620736691
64,636230390620841856
64,636230390620946952
64,636230390621052001
64,636230390621156900
64,636230390621262150
64,636230390621367054
64,636230390621472129
64,636230390621577374
64,636230390621682453
64,636230390621787340
64,636230390621892415
64,636230390621997673
64,636230390622102564
64,636230390622212826
64,636230390622317730
64,636230390622422800
64,636230390622527866
64,636230390622632941
64,636230390622738200
64,636230390622843275
64,636230390622953169
64,636230390623058475
64,636230390623163498
64,636230390623268577
64,636230390623373656
64,636230390623478555
64,636230390623583634
64,636230390623688692
64,636230390623793955
64,636230390623898837
64,636230390624009099
64,636230390624114007
64,636230390624224269
64,636230390624329143
64,636230390624434239
64,636230390624539489
64,636230390624644555
64,636230390624749630
64,636230390624854530
64,636230390624959621
64,636230390625064666
64,636230390625169758
64,636230390625275008
64,636230390625379899
64,636230390625490157
64,636230390625595048
64,636230390625700135
64,636230390625810380
64,636230390625920463
64,636230390626025349
64,636230390626130428
64,636230390626235499
64,636230390626345594
64,636230390626450836
64,636230390626555731
64,636230390626660827
64,636230390626761061
64,636230390626865960
64,636230390626971214
64,636230390627081314
64,636230390627186196
64,636230390627291271
64,636230390627396512
64,636230390627501403
64,636230390627606670
64,636230390627711574
64,636230390627816636
64,636230390627921886
64,636230390628026794
64,636230390628127032
64,636230390628232107
64,636230390628337181
64,636230390628442076
64,636230390628547147
64,636230390628652239
64,636230390628757322
64,636230390628862371
64,636230390628967446
64,636230390629072533
64,636230390629177599
64,636230390629282666
64,636230390629392757
64,636230390629493012
64,636230390629598082
64,636230390629703153
64,636230390629808227
64,636230390629913114
64,636230390630018193
64,636230390630123460
64,636230390630233342
64,636230390630338425
64,636230390630443491
64,636230390630548758
64,636230390630653658
64,636230390630763903
64,636230390630868802
64,636230390630974056
64,636230390631078956
64,636230390631184039
64,636230390631289276
64,636230390631394184
64,636230390631499434
64,636230390631604317
64,636230390631709400
64,636230390631814483
64,636230390631924549
64,636230390632034806
64,636230390632139702
64,636230390632244964
64,636230390632355043
64,636230390632459951
64,636230390632565188
64,636230390632670100
64,636230390632780341
64,636230390632885262
64,636230390632990319
64,636230390633095394
64,636230390633200452
64,636230390633300715
64,636230390633405816
64,636230390633510775
64,636230390633615764
64,636230390633725829
64,636230390633835921
64,636230390633940987
64,636230390634046070
64,636230390634156131
64,636230390634261223
64,636230390634366469
64,636230390634471548
64,636230390634576623
64,636230390634681509
64,636230390634786597
64,636230390634891842
64,636230390634996729
64,636230390635101825
64,636230390635206891
64,636230390635311970
64,636230390635417049
64,636230390635522107
64,636230390635632403
64,636230390635737465
64,636230390635842339
64,636230390635947422
64,636230390636052484
64,636230390636157572
