81,636230434057062480
81,636230434057172366
81,636230434057277445
81,636230434057382537
81,636230434057492782
81,636230434057597668
81,636230434057702927
81,636230434057808006
81,636230434057913081
81,636230434058017971
81,636230434058123234
81,636230434058228125
81,636230434058333375
81,636230434058438270
81,636230434058548528
81,636230434058653440
81,636230434058758686
81,636230434058868576
81,636230434058973677
81,636230434059078734
81,636230434059188813
81,636230434059293879
81,636230434059399137
81,636230434059504233
81,636230434059609312
81,636230434059714178
81,636230434059819441
81,636230434059929510
81,636230434060039601
81,636230434060144663
81,636230434060249554
81,636230434060354633
81,636230434060459716
81,636230434060564778
81,636230434060670041
81,636230434060775112
81,636230434060885194
81,636230434060990098
81,636230434061100172
81,636230434061205242
81,636230434061305489
81,636230434061415392
81,636230434061525461
81,636230434061630724
81,636230434061735799
81,636230434061840686
81,636230434061945948
81,636230434062051023
81,636230434062155935
81,636230434062260984
81,636230434062371247
81,636230434062476137
81,636230434062581229
81,636230434062686287
81,636230434062791545
81,636230434062896624
81,636230434063001511
81,636230434063111786
81,636230434063216690
81,636230434063321927
81,636230434063426848
81,636230434063531892
81,636230434063636963
81,636230434063742243
81,636230434063847134
81,636230434063952379
83,636230434064057450
83,636230434064162336
83,636230434064267595
83,636230434064377489
83,636230434064482564
83,636230434064587823
83,636230434064697717
83,636230434064807800
83,636230434064913058
83,636230434065017949
83,636230434065123037
83,636230434065228120
83,636230434065333199
83,636230434065443252
83,636230434065548515
83,636230434065653418
83,636230434065758493
83,636230434065863734
83,636230434065968839
83,636230434066073713
83,636230434066178963
83,636230434066284033
83,636230434066389104
83,636230434066494183
83,636230434066599069
83,636230434066709165
83,636230434066814239
83,636230434066919297
83,636230434067024560
83,636230434067129639
83,636230434067239709
83,636230434067344788
83,636230434067449683
83,636230434067554941
83,636230434067659841
83,636230434067764907
83,636230434067870157
83,636230434067975069
83,636230434068080122
83,636230434068185385
83,636230434068290272
83,636230434068395535
83,636230434068500610
83,636230434068605680
83,636230434068715596
83,636230434068820649
83,636230434068925912
83,636230434069030798
83,636230434069135890
83,636230434069241136
83,636230434069351048
83,636230434069456101
83,636230434069561180
83,636230434069666255
83,636230434069771334
83,636230434069876588
83,636230434069981492
83,636230434070086780
83,636230434070191641
83,636230434070301719
83,636230434070406965
83,636230434070511856
83,636230434070622122
83,636230434070732192
83,636230434070837275
83,636230434070942342
83,636230434071047421
85,636230434071152500
85,636230434071262591
85,636230434071372660
85,636230434071482563
85,636230434071587801
85,636230434071692726
85,636230434071797954
85,636230434071903025
85,636230434072008099
85,636230434072113007
85,636230434072218065
85,636230434072323332
85,636230434072428227
85,636230434072533293
85,636230434072638548
85,636230434072748630
85,636230434072853705
85,636230434072958592
85,636230434073063854
85,636230434073168745
85,636230434073274004
85,636230434073379079
85,636230434073484021
85,636230434073594056
85,636230434073699157
85,636230434073804201
85,636230434073914275
85,636230434074019359
85,636230434074119627
85,636230434074224706
85,636230434074334754
85,636230434074439653
85,636230434074544737
85,636230434074649799
85,636230434074760056
85,636230434074865135
85,636230434074970026
85,636230434075075285
85,636230434075180188
85,636230434075285439
85,636230434075390325
85,636230434075495396
85,636230434075600475
85,636230434075705562
85,636230434075810812
85,636230434075915729
85,636230434076020778
85,636230434076125870
85,636230434076236106
85,636230434076341185
85,636230434076446290
85,636230434076556167
85,636230434076661413
85,636230434076766509
85,636230434076871404
85,636230434076971638
85,636230434077076704
85,636230434077181616
85,636230434077286853
85,636230434077391753
85,636230434077496823
85,636230434077606897
85,636230434077711985
85,636230434077817051
86,636230434077922305
86,636230434078027209
86,636230434078132292
86,636230434078242357
86,636230434078347436
86,636230434078452498
86,636230434078557573
86,636230434078662652
86,636230434078772739
86,636230434078882804
86,636230434078987879
86,636230434079093142
86,636230434079198046
86,636230434079303291
86,636230434079413370
86,636230434079523452
86,636230434079628523
86,636230434079733414
86,636230434079838668
86,636230434079943730
86,636230434080048633
86,636230434080158900
86,636230434080263808
86,636230434080374053
86,636230434080484127
86,636230434080594209
86,636230434080699284
86,636230434080804175
86,636230434080909245
86,636230434081014320
86,636230434081119408
86,636230434081224470
86,636230434081329561
86,636230434081434632
86,636230434081539882
86,636230434081644773
86,636230434081750031
86,636230434081854918
86,636230434081960185
86,636230434082065251
86,636230434082170151
86,636230434082275225
86,636230434082380484
86,636230434082485383
86,636230434082590445
86,636230434082695700
86,636230434082800783
86,636230434082905678
86,636230434083010740
86,636230434083115827
86,636230434083220906
86,636230434083325964
86,636230434083431056
86,636230434083536118
86,636230434083641372
86,636230434083746460
86,636230434083851342
86,636230434083956429
86,636230434084061500
86,636230434084166579
86,636230434084271825
86,636230434084381903
86,636230434084486802
86,636230434084591894
86,636230434084696939
86,636230434084802035
86,636230434084907105
86,636230434085012184
86,636230434085117255
86,636230434085227337
86,636230434085332579
86,636230434085437649
86,636230434085542557
86,636230434085647799
86,636230434085752878
86,636230434085857953
86,636230434085963023
86,636230434086068106
86,636230434086173010
86,636230434086278076
86,636230434086378323
86,636230434086483209
86,636230434086593476
86,636230434086698366
86,636230434086803458
86,636230434086908529
86,636230434087013595
86,636230434087118674
86,636230434087223740
86,636230434087328840
86,636230434087433898
86,636230434087544152
86,636230434087649231
86,636230434087754301
86,636230434087864379
86,636230434087974462
86,636230434088079378
86,636230434088184440
86,636230434088294501
86,636230434088399756
86,636230434088504796
86,636230434088609738
86,636230434088714813
86,636230434088819875
86,636230434088924945
86,636230434089030042
86,636230434089135283
86,636230434089240170
86,636230434089345441
86,636230434089450511
86,636230434089555578
86,636230434089660657
86,636230434089765547
86,636230434089870635
86,636230434089975889
86,636230434090080767
86,636230434090185855
86,636230434090286097
86,636230434090391172
86,636230434090496067
86,636230434090601146
86,636230434090706225
86,636230434090811479
86,636230434090916362
86,636230434091026624
86,636230434091131523
86,636230434091236773
86,636230434091341852
86,636230434091446739
86,636230434091557001
86,636230434091662080
86,636230434091766984
86,636230434091872234
86,636230434091977300
86,636230434092082374
86,636230434092187282
86,636230434092297527
86,636230434092402606
86,636230434092507681
86,636230434092617593
86,636230434092722834
85,636230434092827721
85,636230434092932988
85,636230434093038054
85,636230434093143137
85,636230434093248024
85,636230434093358102
85,636230434093468257
85,636230434093573251
85,636230434093678514
85,636230434093783589
85,636230434093888659
85,636230434093993558
85,636230434094098629
85,636230434094203704
85,636230434094308962
85,636230434094413870
85,636230434094524119
85,636230434094629023
85,636230434094734089
85,636230434094839348
85,636230434094944234
85,636230434095049484
85,636230434095159563
85,636230434095264672
85,636230434095369738
85,636230434095474821
85,636230434095579682
85,636230434095684774
85,636230434095789849
85,636230434095894923
85,636230434095999998
85,636230434096105073
85,636230434096210147
85,636230434096315201
85,636230434096420280
85,636230434096525543
85,636230434096630609
85,636230434096735525
85,636230434096840763
85,636230434096945653
85,636230434097050724
85,636230434097155811
85,636230434097260912
85,636230434097370956
85,636230434097476214
85,636230434097581135
85,636230434097686287
85,636230434097791259
85,636230434097896329
85,636230434098001584
85,636230434098106492
85,636230434098216553
85,636230434098316808
85,636230434098426719
85,636230434098531777
85,636230434098637044
85,636230434098741926
85,636230434098847189
85,636230434098952093
85,636230434099057155
85,636230434099162242
85,636230434099267309
85,636230434099367555
85,636230434099472450
85,636230434099577529
85,636230434099682600
85,636230434099787880
85,636230434099892762
83,636230434099998003
83,636230434100103078
83,636230434100212990
83,636230434100318047
83,636230434100423126
83,636230434100528205
83,636230434100633455
83,636230434100738350
83,636230434100843609
83,636230434100948517
83,636230434101053579
83,636230434101158654
83,636230434101263737
83,636230434101368816
83,636230434101479065
83,636230434101583956
83,636230434101689026
83,636230434101794114
83,636230434101899355
83,636230434102009258
83,636230434102114329
83,636230434102219399
83,636230434102324679
83,636230434102429741
83,636230434102534623
83,636230434102639715
83,636230434102744790
83,636230434102849848
83,636230434102954927
83,636230434103055182
83,636230434103160261
83,636230434103270159
83,636230434103375225
83,636230434103480488
83,636230434103585589
83,636230434103690462
83,636230434103795713
83,636230434103900616
83,636230434104005862
83,636230434104110753
83,636230434104216007
83,636230434104321082
83,636230434104425986
83,636230434104536239
83,636230434104641305
83,636230434104746393
83,636230434104851271
83,636230434104956534
83,636230434105061613
83,636230434105166687
83,636230434105271578
83,636230434105376657
83,636230434105481728
83,636230434105586798
83,636230434105687066
83,636230434105797131
83,636230434105902206
83,636230434106007311
83,636230434106112185
83,636230434106217246
83,636230434106322514
83,636230434106427413
83,636230434106532483
83,636230434106637734
83,636230434106742800
83,636230434106847874
83,636230434106952770
83,636230434107057857
83,636230434107162919
83,636230434107273014
83,636230434107378260
83,636230434107483164
83,636230434107588247
82,636230434107693292
82,636230434107803558
82,636230434107908547
82,636230434108013558
82,636230434108118599
82,636230434108223690
82,636230434108328774
82,636230434108433836
82,636230434108538910
82,636230434108644160
82,636230434108749060
82,636230434108854305
82,636230434108959384
82,636230434109064451
82,636230434109169346
82,636230434109274600
82,636230434109379675
82,636230434109484754
82,636230434109589640
82,636230434109694908
82,636230434109799798
82,636230434109904869
82,636230434110009961
82,636230434110115014
82,636230434110220093
82,636230434110325352
82,636230434110435242
82,636230434110540500
82,636230434110645579
82,636230434110750483
82,636230434110855558
82,636230434110960803
82,636230434111065874
82,636230434111170953
82,636230434111280864
82,636230434111386102
82,636230434111491181
82,636230434111596084
82,636230434111701334
82,636230434111806229
82,636230434111916299
82,636230434112021558
82,636230434112126654
82,636230434112231523
82,636230434112336782
82,636230434112441668
82,636230434112546931
82,636230434112652006
82,636230434112757081
82,636230434112862160
82,636230434112967230
82,636230434113072134
82,636230434113177196
82,636230434113282459
82,636230434113387525
82,636230434113492428
82,636230434113597507
82,636230434113702753
82,636230434113807678
82,636230434113912727
82,636230434114022814
82,636230434114127872
82,636230434114232942
82,636230434114338231
82,636230434114443096
82,636230434114548171
82,636230434114648430
82,636230434114758337
82,636230434114858584
82,636230434114963658
82,636230434115068554
82,636230434115173799
82,636230434115283689
82,636230434115388948
81,636230434115493860
81,636230434115598939
81,636230434115704176
81,636230434115809080
81,636230434115914142
81,636230434116019242
81,636230434116124304
81,636230434116229554
81,636230434116334629
81,636230434116439729
81,636230434116544607
81,636230434116649678
81,636230434116754740
81,636230434116859827
81,636230434116969893
81,636230434117075147
81,636230434117180226
81,636230434117285134
81,636230434117390187
81,636230434117495288
81,636230434117600529
81,636230434117705600
81,636230434117810674
81,636230434117915565
81,636230434118020640
81,636230434118130723
81,636230434118235797
81,636230434118340863
81,636230434118445942
81,636230434118551201
81,636230434118656096
81,636230434118761162
81,636230434118866425
81,636230434118971320
81,636230434119076391
81,636230434119181474
81,636230434119286544
81,636230434119391615
81,636230434119496685
81,636230434119601777
81,636230434119707019
81,636230434119812106
81,636230434119917172
81,636230434120022256
81,636230434120127151
81,636230434120232247
81,636230434120337304
81,636230434120442379
81,636230434120547629
81,636230434120657515
81,636230434120762603
81,636230434120867665
81,636230434120972932
81,636230434121082818
81,636230434121188072
81,636230434121292967
81,636230434121398042
81,636230434121503296
81,636230434121613379
81,636230434121718274
81,636230434121823528
81,636230434121928607
81,636230434122033673
81,636230434122138568
81,636230434122243831
81,636230434122348906
81,636230434122458805
81,636230434122563875
81,636230434122669129
81,636230434122774225
80,636230434122879275
80,636230434122984375
80,636230434123089257
80,636230434123194315
80,636230434123299394
80,636230434123404481
80,636230434123514564
80,636230434123619621
80,636230434123724889
80,636230434123829767
80,636230434123934846
80,636230434124045108
80,636230434124149999
80,636230434124255073
80,636230434124360157
80,636230434124465227
80,636230434124570310
80,636230434124675394
80,636230434124780460
80,636230434124885560
80,636230434124990810
80,636230434125100854
80,636230434125205933
80,636230434125310837
80,636230434125415895
80,636230434125521157
80,636230434125626232
80,636230434125736310
80,636230434125846222
80,636230434125951459
80,636230434126056367
80,636230434126161609
80,636230434126266688
80,636230434126376774
80,636230434126481687
80,636230434126586731
80,636230434126696818
80,636230434126802064
80,636230434126907147
80,636230434127012047
80,636230434127117117
80,636230434127222200
80,636230434127332274
80,636230434127437353
80,636230434127542407
80,636230434127647511
80,636230434127752560
80,636230434127857652
80,636230434127962723
80,636230434128072827
80,636230434128177880
80,636230434128282950
80,636230434128383193
80,636230434128488088
80,636230434128593158
80,636230434128698417
80,636230434128808491
80,636230434128913390
80,636230434129023648
80,636230434129128723
80,636230434129233802
80,636230434129338684
80,636230434129443784
81,636230434129548851
81,636230434129653930
81,636230434129759175
81,636230434129864250
81,636230434129969150
81,636230434130074391
81,636230434130179466
81,636230434130284540
81,636230434130389615
81,636230434130494515
81,636230434130599585
81,636230434130704664
81,636230434130809931
81,636230434130914826
81,636230434131020072
81,636230434131125143
81,636230434131230213
81,636230434131335292
81,636230434131440187
81,636230434131545441
81,636230434131650332
81,636230434131755403
81,636230434131860494
81,636230434131965569
81,636230434132070815
81,636230434132175706
81,636230434132280781
81,636230434132385868
81,636230434132491114
81,636230434132596189
81,636230434132701268
81,636230434132806342
81,636230434132911237
81,636230434133016304
81,636230434133116503
81,636230434133221449
81,636230434133331716
81,636230434133436786
81,636230434133541694
81,636230434133646936
81,636230434133751827
81,636230434133861922
81,636230434133967164
81,636230434134072247
81,636230434134177125
81,636230434134282400
81,636230434134387467
81,636230434134492370
81,636230434134597432
81,636230434134702695
81,636230434134807761
81,636230434134912678
81,636230434135017744
81,636230434135127818
81,636230434135232901
81,636230434135338138
81,636230434135443029
81,636230434135543289
81,636230434135648380
81,636230434135758467
81,636230434135868520
81,636230434135973590
81,636230434136078674
81,636230434136183577
81,636230434136288652
82,636230434136398893
82,636230434136503967
82,636230434136608854
82,636230434136713937
82,636230434136819192
82,636230434136924271
82,636230434137029161
82,636230434137134236
82,636230434137239324
82,636230434137344381
82,636230434137449456
82,636230434137554715
82,636230434137659601
82,636230434137769684
82,636230434137874758
82,636230434137980013
82,636230434138084908
82,636230434138189995
82,636230434138295250
82,636230434138400312
82,636230434138505395
82,636230434138610465
82,636230434138715549
82,636230434138820444
82,636230434138925501
82,636230434139030585
82,636230434139135664
82,636230434139245750
82,636230434139350804
82,636230434139455896
82,636230434139561150
82,636230434139666045
82,636230434139771120
82,636230434139876370
82,636230434139981252
82,636230434140091356
82,636230434140196405
82,636230434140301664
82,636230434140406747
82,636230434140511822
82,636230434140621712
82,636230434140721967
82,636230434140826858
82,636230434140931945
82,636230434141037195
82,636230434141142270
82,636230434141247165
82,636230434141352240
82,636230434141452482
82,636230434141557561
82,636230434141662632
82,636230434141767736
82,636230434141872785
82,636230434141977672
82,636230434142082747
82,636230434142192829
82,636230434142297989
82,636230434142403167
82,636230434142508070
82,636230434142613316
82,636230434142718203
82,636230434142823461
82,636230434142933364
82,636230434143033611
83,636230434143143518
83,636230434143253588
83,636230434143358658
83,636230434143463754
83,636230434143563988
83,636230434143673878
83,636230434143778953
83,636230434143884216
83,636230434143989312
83,636230434144099399
83,636230434144204255
83,636230434144309334
83,636230434144414409
83,636230434144519492
83,636230434144624571
83,636230434144734821
83,636230434144844895
83,636230434144949794
83,636230434145055052
83,636230434145159952
83,636230434145265198
83,636230434145370106
83,636230434145475180
83,636230434145580242
83,636230434145685501
83,636230434145790400
83,636230434145895655
83,636230434146000721
83,636230434146105800
83,636230434146210686
83,636230434146315778
83,636230434146420853
83,636230434146531098
83,636230434146636181
83,636230434146741063
83,636230434146846151
83,636230434146951230
83,636230434147056471
83,636230434147166379
83,636230434147271624
83,636230434147376515
83,636230434147481599
83,636230434147586669
83,636230434147691923
83,636230434147796831
83,636230434147902073
83,636230434148007143
83,636230434148112222
83,636230434148217126
83,636230434148327277
83,636230434148437270
83,636230434148542357
83,636230434148647436
83,636230434148752494
83,636230434148857586
83,636230434148962836
83,636230434149067906
83,636230434149172977
83,636230434149278051
83,636230434149382955
83,636230434149488034
83,636230434149593271
83,636230434149698350
85,636230434149803245
85,636230434149913503
85,636230434150018398
85,636230434150123482
85,636230434150228543
85,636230434150333618
85,636230434150438919
85,636230434150543986
85,636230434150649026
85,636230434150754101
85,636230434150858992
85,636230434150964066
85,636230434151074324
85,636230434151179219
85,636230434151284311
85,636230434151394556
85,636230434151499451
85,636230434151604535
85,636230434151714617
85,636230434151819675
85,636230434151924933
85,636230434152030017
85,636230434152134912
85,636230434152244982
85,636230434152355244
85,636230434152460126
85,636230434152565389
85,636230434152670293
85,636230434152780354
85,636230434152885612
85,636230434152990507
85,636230434153095770
85,636230434153200670
85,636230434153305916
85,636230434153410995
85,636230434153515911
85,636230434153621140
85,636230434153726048
85,636230434153831289
85,636230434153936368
85,636230434154041272
85,636230434154146334
85,636230434154251413
85,636230434154356667
85,636230434154466570
85,636230434154571816
85,636230434154676724
85,636230434154781794
85,636230434154882819
85,636230434154983130
85,636230434155084270
85,636230434155188494
85,636230434155294637
85,636230434155395098
85,636230434155496131
85,636230434155597306
85,636230434155698728
85,636230434155811437
85,636230434155912624
85,636230434156016219
85,636230434156116786
85,636230434156219329
85,636230434156320038
85,636230434156425104
85,636230434156527963
85,636230434156631729
85,636230434156732369
85,636230434156841913
87,636230434156942651
87,636230434157043864
87,636230434157148759
87,636230434157249412
87,636230434157353828
87,636230434157454964
87,636230434157560385
87,636230434157664562
87,636230434157767836
87,636230434157869571
87,636230434157970502
87,636230434158071129
87,636230434158171807
87,636230434158273341
87,636230434158373476
87,636230434158474352
87,636230434158583134
87,636230434158689581
87,636230434158792706
87,636230434158893389
87,636230434158995226
87,636230434159096478
87,636230434159197135
87,636230434159299605
87,636230434159401040
87,636230434159502288
87,636230434159607444
87,636230434159714045
87,636230434159815399
87,636230434159916762
87,636230434160020250
87,636230434160125449
87,636230434160227068
87,636230434160330394
87,636230434160435635
87,636230434160545529
87,636230434160650604
87,636230434160755679
87,636230434160865757
87,636230434160970832
87,636230434161075911
87,636230434161180981
87,636230434161291072
87,636230434161391635
87,636230434161495573
87,636230434161600647
87,636230434161705722
87,636230434161815933
87,636230434161916808
87,636230434162021874
87,636230434162122262
87,636230434162223757
87,636230434162328682
87,636230434162429074
87,636230434162534277
87,636230434162638873
87,636230434162739538
87,636230434162844652
87,636230434162945535
87,636230434163046295
87,636230434163151224
87,636230434163256479
87,636230434163361562
87,636230434163466470
87,636230434163571707
87,636230434163681785
87,636230434163786693
87,636230434163896938
87,636230434164002017
87,636230434164106912
87,636230434164211970
87,636230434164312229
87,636230434164417125
87,636230434164522375
86,636230434164627274
86,636230434164732344
86,636230434164832599
86,636230434164937490
86,636230434165047752
86,636230434165157852
86,636230434165262739
86,636230434165367976
86,636230434165478054
86,636230434165582966
86,636230434165688020
86,636230434165793099
86,636230434165898191
86,636230434166003261
86,636230434166108319
86,636230434166213402
86,636230434166318558
86,636230434166423727
86,636230434166533813
86,636230434166638700
86,636230434166738959
86,636230434166848854
86,636230434166958932
86,636230434167063998
86,636230434167164275
86,636230434167269144
86,636230434167374407
86,636230434167484301
86,636230434167589380
86,636230434167699634
86,636230434167804529
86,636230434167909788
86,636230434168014862
86,636230434168119770
86,636230434168224828
86,636230434168330082
86,636230434168434990
86,636230434168540052
86,636230434168645140
86,636230434168750206
86,636230434168855281
86,636230434168960535
86,636230434169065447
86,636230434169170680
86,636230434169275575
86,636230434169385653
86,636230434169490908
86,636230434169595803
86,636230434169700878
86,636230434169805965
86,636230434169911027
86,636230434170016097
86,636230434170121189
86,636230434170226264
86,636230434170331330
86,636230434170436396
86,636230434170541663
86,636230434170646738
86,636230434170751813
86,636230434170856888
86,636230434170961770
86,636230434171066853
86,636230434171171924
86,636230434171277011
86,636230434171382257
86,636230434171487169
86,636230434171592406
86,636230434171697481
86,636230434171802372
86,636230434171907631
86,636230434172012539
84,636230434172117592
84,636230434172222850
84,636230434172327763
84,636230434172432837
84,636230434172537895
84,636230434172643060
84,636230434172748224
84,636230434172853132
84,636230434172958194
84,636230434173068452
84,636230434173173347
84,636230434173283438
84,636230434173388692
84,636230434173493600
84,636230434173598649
84,636230434173703912
84,636230434173808799
84,636230434173913869
84,636230434174024140
84,636230434174129210
84,636230434174234285
84,636230434174339360
84,636230434174444246
84,636230434174554337
84,636230434174659404
84,636230434174764658
84,636230434174869562
84,636230434174974641
84,636230434175079703
84,636230434175179953
84,636230434175284853
84,636230434175390107
84,636230434175495186
84,636230434175600278
84,636230434175705327
84,636230434175815238
84,636230434175920309
84,636230434176025371
84,636230434176130463
84,636230434176235704
84,636230434176340612
84,636230434176445687
84,636230434176550932
84,636230434176655823
84,636230434176761078
84,636230434176866161
84,636230434176971047
84,636230434177076302
84,636230434177181377
84,636230434177286272
84,636230434177396354
84,636230434177501609
84,636230434177606495
84,636230434177716578
84,636230434177821652
84,636230434177931932
84,636230434178036827
84,636230434178141897
84,636230434178246972
84,636230434178357217
84,636230434178462108
84,636230434178567375
84,636230434178672441
84,636230434178777349
84,636230434178882586
84,636230434178987481
84,636230434179092740
84,636230434179197627
84,636230434179302710
84,636230434179407797
84,636230434179512855
84,636230434179617930
84,636230434179723000
84,636230434179828079
84,636230434179933368
84,636230434180038241
84,636230434180143483
84,636230434180248378
84,636230434180353466
84,636230434180458532
84,636230434180568785
84,636230434180673693
84,636230434180778768
84,636230434180883826
84,636230434180988917
84,636230434181094163
84,636230434181199050
84,636230434181304154
84,636230434181414224
84,636230434181519286
84,636230434181624361
84,636230434181734619
84,636230434181839518
84,636230434181944785
84,636230434182054872
84,636230434182159750
84,636230434182264816
84,636230434182370071
84,636230434182474978
84,636230434182585219
84,636230434182690303
84,636230434182795206
84,636230434182900260
84,636230434183010355
84,636230434183115417
84,636230434183220671
84,636230434183330754
84,636230434183435828
84,636230434183545723
84,636230434183650986
84,636230434183760880
84,636230434183865963
84,636230434183971209
84,636230434184076100
84,636230434184181192
84,636230434184291270
84,636230434184396507
84,636230434184501402
84,636230434184606665
84,636230434184711736
84,636230434184816627
84,636230434184926884
84,636230434185031959
84,636230434185137042
84,636230434185242109
84,636230434185347017
84,636230434185452096
84,636230434185557162
84,636230434185662412
84,636230434185767482
84,636230434185872403
84,636230434185977469
84,636230434186082753
84,636230434186187696
84,636230434186292693
84,636230434186397935
84,636230434186502838
84,636230434186608080
84,636230434186712975
82,636230434186818045
82,636230434186923308
82,636230434187028383
82,636230434187133274
82,636230434187238541
82,636230434187343603
82,636230434187448678
82,636230434187553757
82,636230434187658831
82,636230434187763735
82,636230434187868814
82,636230434187973880
82,636230434188079139
82,636230434188184209
82,636230434188289280
82,636230434188394166
82,636230434188499258
82,636230434188604508
82,636230434188709408
82,636230434188814658
82,636230434188924727
82,636230434189029806
82,636230434189134714
82,636230434189239785
82,636230434189344842
82,636230434189450101
82,636230434189560012
82,636230434189670074
82,636230434189775148
82,636230434189880240
82,636230434189990318
82,636230434190095402
82,636230434190205642
82,636230434190310546
82,636230434190420607
82,636230434190525866
82,636230434190630975
82,636230434190736020
82,636230434190840928
82,636230434190946165
82,636230434191051056
82,636230434191156130
82,636230434191261205
82,636230434191366301
82,636230434191471372
82,636230434191576613
82,636230434191681525
82,636230434191786767
82,636230434191891658
82,636230434191996732
82,636230434192101811
82,636230434192206882
82,636230434192311974
82,636230434192412220
82,636230434192517098
82,636230434192622173
82,636230434192727431
82,636230434192832322
82,636230434192937410
82,636230434193047492
82,636230434193152554
82,636230434193257813
82,636230434193362883
82,636230434193467791
82,636230434193572870
82,636230434193677924
82,636230434193783191
82,636230434193888073
82,636230434193993148
82,636230434194098240
82,636230434194203302
82,636230434194308398
82,636230434194418455
82,636230434194528529
82,636230434194633620
80,636230434194738687
80,636230434194843770
80,636230434194949011
80,636230434195058923
80,636230434195163985
80,636230434195269239
80,636230434195374130
80,636230434195479222
80,636230434195584463
80,636230434195689371
80,636230434195794613
80,636230434195899700
80,636230434196004595
80,636230434196109674
80,636230434196214745
80,636230434196319811
80,636230434196429881
80,636230434196534985
80,636230434196635223
80,636230434196740285
80,636230434196845360
80,636230434196950439
80,636230434197060346
80,636230434197165404
80,636230434197270483
80,636230434197370733
80,636230434197475808
80,636230434197580887
80,636230434197685958
80,636230434197790874
80,636230434197895940
80,636230434198001015
80,636230434198106090
80,636230434198216159
80,636230434198321230
80,636230434198426309
80,636230434198526572
80,636230434198631634
80,636230434198736529
80,636230434198841779
80,636230434198946880
80,636230434199051762
80,636230434199161845
80,636230434199267086
80,636230434199372157
80,636230434199477236
80,636230434199582306
80,636230434199692200
80,636230434199797459
80,636230434199902538
80,636230434200012437
80,636230434200117507
80,636230434200222586
80,636230434200327657
80,636230434200432736
80,636230434200537802
80,636230434200648064
80,636230434200757963
80,636230434200863221
80,636230434200968108
80,636230434201073187
80,636230434201178266
80,636230434201283336
80,636230434201388415
80,636230434201493481
80,636230434201603761
80,636230434201713839
80,636230434201818730
80,636230434201923787
80,636230434202033883
80,636230434202139129
79,636230434202244024
79,636230434202344274
79,636230434202449174
79,636230434202554236
79,636230434202659340
79,636230434202764389
79,636230434202869477
79,636230434202974552
79,636230434203079622
79,636230434203184701
79,636230434203289776
79,636230434203394838
79,636230434203500092
79,636230434203605000
79,636230434203710062
79,636230434203815137
79,636230434203920216
79,636230434204025286
79,636230434204130549
79,636230434204235448
79,636230434204340514
79,636230434204445611
79,636230434204550672
79,636230434204660746
79,636230434204765847
79,636230434204871067
79,636230434204976172
79,636230434205081246
79,636230434205191111
79,636230434205296203
79,636230434205401444
79,636230434205506352
79,636230434205611418
79,636230434205716484
79,636230434205821559
79,636230434205931663
79,636230434206036733
79,636230434206141979
79,636230434206247050
79,636230434206351936
79,636230434206457032
79,636230434206562103
79,636230434206667169
79,636230434206772252
79,636230434206877310
79,636230434206982402
79,636230434207087459
79,636230434207192534
79,636230434207302796
79,636230434207407687
79,636230434207512762
79,636230434207613021
79,636230434207717925
79,636230434207822982
79,636230434207928258
79,636230434208033149
79,636230434208138224
79,636230434208243285
79,636230434208348377
79,636230434208453431
79,636230434208558689
79,636230434208663597
79,636230434208768659
79,636230434208873730
79,636230434208979018
79,636230434209084101
79,636230434209188979
79,636230434209294212
79,636230434209399296
80,636230434209509199
80,636230434209614260
80,636230434209714515
80,636230434209819411
80,636230434209924669
80,636230434210034568
80,636230434210144821
80,636230434210249892
80,636230434210354800
80,636230434210460050
80,636230434210564941
80,636230434210670028
80,636230434210775086
80,636230434210875337
80,636230434210980411
80,636230434211085302
80,636230434211190394
80,636230434211295648
80,636230434211400543
80,636230434211505785
80,636230434211615688
80,636230434211720754
80,636230434211826017
80,636230434211930916
80,636230434212035995
80,636230434212141237
80,636230434212246128
80,636230434212351224
80,636230434212461285
80,636230434212566539
80,636230434212671618
80,636230434212776693
80,636230434212881588
80,636230434212986671
80,636230434213091913
80,636230434213196808
80,636230434213301878
80,636230434213406957
80,636230434213512049
80,636230434213612287
80,636230434213717174
80,636230434213822248
80,636230434213927340
80,636230434214032415
80,636230434214137490
80,636230434214242552
80,636230434214347626
80,636230434214452885
80,636230434214557960
80,636230434214663034
80,636230434214772950
80,636230434214878016
80,636230434214983078
80,636230434215088174
80,636230434215193241
80,636230434215298486
80,636230434215403638
80,636230434215508636
80,636230434215613527
80,636230434215718618
80,636230434215823689
80,636230434215928746
80,636230434216033838
80,636230434216139080
80,636230434216244159
80,636230434216349233
80,636230434216454120
80,636230434216559212
80,636230434216664291
80,636230434216769344
80,636230434216874423
80,636230434216979502
80,636230434217084573
80,636230434217189664
80,636230434217294722
80,636230434217399818
80,636230434217510055
80,636230434217614967
80,636230434217720020
80,636230434217825095
80,636230434217930358
80,636230434218040449
80,636230434218145507
80,636230434218250419
80,636230434218355476
80,636230434218465739
80,636230434218570625
80,636230434218680720
80,636230434218785795
80,636230434218890857
80,636230434218995936
80,636230434219096183
80,636230434219201099
80,636230434219301333
80,636230434219406236
80,636230434219511499
80,636230434219616591
80,636230434219721461
80,636230434219826702
80,636230434219931610
80,636230434220036685
80,636230434220141742
80,636230434220246817
80,636230434220356895
80,636230434220462158
80,636230434220567237
80,636230434220672137
80,636230434220777382
80,636230434220882457
80,636230434220987369
80,636230434221092423
80,636230434221197502
80,636230434221302576
80,636230434221412655
80,636230434221517721
80,636230434221622813
80,636230434221727875
80,636230434221833172
80,636230434221938020
80,636230434222043094
80,636230434222148280
80,636230434222253428
80,636230434222363326
80,636230434222473584
80,636230434222578488
80,636230434222683742
80,636230434222788813
80,636230434222893704
80,636230434222998962
80,636230434223104033
80,636230434223208936
80,636230434223314182
80,636230434223419073
80,636230434223524332
80,636230434223629239
80,636230434223734485
80,636230434223839560
80,636230434223944464
80,636230434224049525
80,636230434224154634
80,636230434224259863
80,636230434224364767
80,636230434224469824
79,636230434224574899
79,636230434224679974
79,636230434224785237
79,636230434224890119
79,636230434224995390
79,636230434225100273
79,636230434225205347
79,636230434225310435
79,636230434225410711
79,636230434225520576
79,636230434225630663
79,636230434225735913
79,636230434225840979
79,636230434225945878
79,636230434226051128
79,636230434226156207
79,636230434226261282
79,636230434226366357
79,636230434226471431
79,636230434226576322
79,636230434226681589
79,636230434226786493
79,636230434226891735
79,636230434226996621
79,636230434227101884
79,636230434227206788
79,636230434227316853
79,636230434227422112
79,636230434227527178
79,636230434227632287
79,636230434227737148
79,636230434227842218
79,636230434227947481
79,636230434228052556
79,636230434228157447
79,636230434228257702
79,636230434228362789
79,636230434228467860
79,636230434228572759
79,636230434228678005
79,636230434228782891
79,636230434228892995
79,636230434228998044
79,636230434229103132
79,636230434229213377
79,636230434229318289
79,636230434229428346
79,636230434229538429
79,636230434229643499
79,636230434229748801
79,636230434229858879
79,636230434229963735
79,636230434230068802
79,636230434230174069
79,636230434230278972
79,636230434230384047
79,636230434230489109
79,636230434230594175
79,636230434230699434
79,636230434230804509
79,636230434230909429
79,636230434231014615
79,636230434231119566
79,636230434231224645
79,636230434231329703
79,636230434231434790
79,636230434231544856
79,636230434231655122
80,636230434231765234
80,636230434231870100
80,636230434231975350
80,636230434232080232
80,636230434232185495
80,636230434232290386
80,636230434232395640
80,636230434232500531
80,636230434232605610
80,636230434232710868
80,636230434232820759
80,636230434232921014
80,636230434233025922
80,636230434233130983
80,636230434233241241
80,636230434233346141
80,636230434233451207
80,636230434233556290
80,636230434233661361
80,636230434233766658
80,636230434233871531
80,636230434233976598
80,636230434234081659
80,636230434234186914
80,636230434234291989
80,636230434234397080
80,636230434234502142
80,636230434234612041
80,636230434234717107
80,636230434234822374
80,636230434234932444
80,636230434235037527
80,636230434235142602
80,636230434235252676
80,636230434235362758
80,636230434235472828
80,636230434235577740
80,636230434235682802
80,636230434235788057
80,636230434235893131
80,636230434235998035
80,636230434236103328
80,636230434236208167
80,636230434236313268
80,636230434236423320
80,636230434236528412
80,636230434236633654
80,636230434236738728
80,636230434236843636
80,636230434236948703
80,636230434237053948
80,636230434237164035
80,636230434237268922
80,636230434237374014
80,636230434237479264
80,636230434237584154
80,636230434237689221
80,636230434237799487
80,636230434237904378
80,636230434238009636
80,636230434238114523
80,636230434238219623
80,636230434238324677
80,636230434238429751
80,636230434238534839
80,636230434238640080
80,636230434238745155
80,636230434238850063
80,636230434238955121
80,636230434239060217
80,636230434239165270
80,636230434239270554
80,636230434239375437
80,636230434239480499
80,636230434239585573
80,636230434239695831
80,636230434239800906
80,636230434239905801
80,636230434240010880
80,636230434240115963
80,636230434240221213
80,636230434240326117
80,636230434240431175
80,636230434240536438
80,636230434240641341
80,636230434240746407
80,636230434240851482
80,636230434240956561
80,636230434241061640
80,636230434241166706
80,636230434241271772
80,636230434241377031
80,636230434241481922
80,636230434241592017
80,636230434241697071
80,636230434241802154
80,636230434241907241
80,636230434242012303
80,636230434242117382
80,636230434242222461
80,636230434242332715
80,636230434242437811
80,636230434242542890
80,636230434242647751
80,636230434242752826
80,636230434242863088
80,636230434242973162
80,636230434243078070
80,636230434243183311
80,636230434243288390
80,636230434243393298
80,636230434243503355
80,636230434243608447
80,636230434243713522
80,636230434243818767
80,636230434243923680
80,636230434244033736
80,636230434244138807
80,636230434244243903
80,636230434244353964
80,636230434244459248
80,636230434244564182
80,636230434244669205
80,636230434244774276
80,636230434244879517
80,636230434244984425
80,636230434245089500
80,636230434245194742
80,636230434245299825
80,636230434245404891
80,636230434245509970
80,636230434245614857
80,636230434245719940
80,636230434245825010
80,636230434245930081
80,636230434246035160
80,636230434246140230
80,636230434246245313
80,636230434246350384
80,636230434246460479
80,636230434246565550
80,636230434246670800
80,636230434246775866
80,636230434246880757
80,636230434246985836
80,636230434247090910
80,636230434247196169
80,636230434247301060
80,636230434247406314
80,636230434247511209
80,636230434247616301
80,636230434247721355
80,636230434247826446
80,636230434247931692
80,636230434248036767
80,636230434248146841
80,636230434248251740
80,636230434248356806
80,636230434248461898
80,636230434248572143
80,636230434248677227
80,636230434248782109
80,636230434248887201
80,636230434248992442
80,636230434249097525
80,636230434249202596
80,636230434249307487
80,636230434249412566
80,636230434249517632
80,636230434249622899
80,636230434249727781
80,636230434249832873
80,636230434249937952
80,636230434250043194
80,636230434250153105
80,636230434250258167
80,636230434250363242
80,636230434250468316
80,636230434250573404
80,636230434250673646
80,636230434250778567
80,636230434250888620
80,636230434250988896
80,636230434251093757
80,636230434251204019
80,636230434251308927
80,636230434251413980
80,636230434251519055
80,636230434251624322
80,636230434251729222
80,636230434251834472
80,636230434251939354
80,636230434252044617
80,636230434252149503
80,636230434252254766
80,636230434252359674
80,636230434252464736
80,636230434252574814
80,636230434252675061
80,636230434252779956
80,636230434252885210
80,636230434252990294
80,636230434253095180
80,636230434253200272
80,636230434253305342
80,636230434253415421
80,636230434253520495
80,636230434253625570
80,636230434253735815
80,636230434253840907
80,636230434253945965
80,636230434254050877
80,636230434254156123
80,636230434254261022
80,636230434254371267
80,636230434254476175
80,636230434254581258
80,636230434254686508
80,636230434254791403
80,636230434254896577
80,636230434255001532
80,636230434255106628
80,636230434255211869
80,636230434255316760
80,636230434255422019
80,636230434255526909
80,636230434255631993
80,636230434255737055
80,636230434255842151
80,636230434255947230
80,636230434256052471
80,636230434256157379
80,636230434256262612
80,636230434256367520
80,636230434256472586
80,636230434256577661
80,636230434256682731
80,636230434256787819
80,636230434256892894
80,636230434256997968
80,636230434257103026
80,636230434257213297
80,636230434257318187
80,636230434257423476
80,636230434257528350
80,636230434257633403
80,636230434257743481
80,636230434257848556
80,636230434257953836
80,636230434258058723
80,636230434258168788
80,636230434258273859
80,636230434258378950
80,636230434258484196
80,636230434258589083
80,636230434258694187
80,636230434258799236
80,636230434258904332
80,636230434259014402
80,636230434259124463
80,636230434259229735
80,636230434259334630
80,636230434259439871
80,636230434259549770
80,636230434259654841
80,636230434259759920
80,636230434259865178
80,636230434259970249
80,636230434260075332
80,636230434260180214
80,636230434260285473
80,636230434260390368
80,636230434260495455
80,636230434260605534
80,636230434260710600
80,636230434260815863
80,636230434260920749
80,636230434261025837
81,636230434261131074
81,636230434261235986
81,636230434261346060
81,636230434261451118
81,636230434261556377
81,636230434261661272
81,636230434261766526
81,636230434261871434
81,636230434261976521
81,636230434262081588
81,636230434262191833
81,636230434262296736
81,636230434262401982
81,636230434262506869
81,636230434262611960
81,636230434262722030
81,636230434262827280
81,636230434262932180
81,636230434263037434
81,636230434263142342
81,636230434263247412
81,636230434263352654
81,636230434263457737
81,636230434263562803
81,636230434263667694
81,636230434263772957
81,636230434263878032
81,636230434263983106
81,636230434264088023
81,636230434264193252
81,636230434264303150
81,636230434264408221
81,636230434264518299
81,636230434264623562
81,636230434264728637
81,636230434264833540
81,636230434264938628
81,636230434265043673
81,636230434265153768
81,636230434265259031
81,636230434265364127
81,636230434265468984
81,636230434265574264
81,636230434265679330
81,636230434265789203
81,636230434265894466
81,636230434265999352
81,636230434266104615
81,636230434266214505
81,636230434266319772
81,636230434266424672
81,636230434266534733
81,636230434266639992
81,636230434266745071
81,636230434266849983
81,636230434266955036
81,636230434267060107
81,636230434267165369
81,636230434267270461
81,636230434267380339
81,636230434267485430
81,636230434267590698
81,636230434267700562
81,636230434267805821
81,636230434267910733
83,636230434268020982
83,636230434268125881
83,636230434268230939
83,636230434268336039
83,636230434268441272
83,636230434268546356
83,636230434268651255
83,636230434268756334
83,636230434268866408
83,636230434268976491
83,636230434269081732
83,636230434269186627
83,636230434269291882
83,636230434269396772
83,636230434269502031
83,636230434269612135
83,636230434269717013
83,636230434269822088
83,636230434269932333
83,636230434270037224
83,636230434270142482
83,636230434270247557
83,636230434270352452
83,636230434270457522
83,636230434270562601
83,636230434270667689
83,636230434270772764
83,636230434270877826
83,636230434270982913
83,636230434271087975
83,636230434271193054
83,636230434271298124
83,636230434271403216
83,636230434271508270
83,636230434271613537
83,636230434271718436
83,636230434271818700
83,636230434271923569
83,636230434272033648
83,636230434272138735
83,636230434272243977
83,636230434272349056
83,636230434272459134
83,636230434272564204
83,636230434272669117
83,636230434272774187
83,636230434272884274
83,636230434272989327
83,636230434273094594
83,636230434273199477
83,636230434273304735
83,636230434273414634
83,636230434273519704
83,636230434273624997
83,636230434273729849
83,636230434273835112
83,636230434273940183
83,636230434274045270
83,636230434274150336
83,636230434274255223
83,636230434274360490
83,636230434274465556
83,636230434274570635
84,636230434274675522
84,636230434274780785
84,636230434274885860
84,636230434274990930
84,636230434275101008
84,636230434275205916
84,636230434275310974
84,636230434275416057
84,636230434275526140
84,636230434275631210
84,636230434275741314
84,636230434275846543
84,636230434275951455
84,636230434276056504
84,636230434276161596
84,636230434276266842
84,636230434276371916
84,636230434276476965
84,636230434276582027
84,636230434276687102
84,636230434276792036
84,636230434276897294
84,636230434277002194
84,636230434277107268
84,636230434277212326
84,636230434277317405
84,636230434277422480
84,636230434277532558
84,636230434277642824
84,636230434277747711
84,636230434277857802
84,636230434277967867
84,636230434278072968
84,636230434278178017
84,636230434278283087
84,636230434278388179
84,636230434278498257
84,636230434278603336
84,636230434278708578
84,636230434278813482
84,636230434278913720
84,636230434279023631
84,636230434279133709
84,636230434279238959
84,636230434279344030
84,636230434279453941
84,636230434279564002
84,636230434279669265
84,636230434279774152
84,636230434279879411
84,636230434279984314
84,636230434280089376
84,636230434280194451
84,636230434280299543
84,636230434280404784
84,636230434280509859
84,636230434280614750
84,636230434280719820
84,636230434280829915
84,636230434280934994
84,636230434281040240
84,636230434281145306
84,636230434281250197
85,636230434281355460
85,636230434281460351
85,636230434281570425
85,636230434281675521
85,636230434281780574
85,636230434281885662
85,636230434281990732
85,636230434282095816
85,636230434282200873
85,636230434282305948
85,636230434282411232
85,636230434282516097
85,636230434282621360
85,636230434282726439
85,636230434282831510
85,636230434282936401
85,636230434283041655
85,636230434283146730
85,636230434283251809
85,636230434283356879
85,636230434283461774
85,636230434283562025
85,636230434283667100
85,636230434283772174
85,636230434283877249
85,636230434283982324
85,636230434284092223
85,636230434284202485
85,636230434284307585
85,636230434284412450
85,636230434284517525
85,636230434284622784
85,636230434284727858
85,636230434284832749
85,636230434284938008
85,636230434285048086
85,636230434285152977
85,636230434285258231
85,636230434285363314
85,636230434285468385
85,636230434285573293
85,636230434285678363
85,636230434285783609
85,636230434285888496
85,636230434285993587
85,636230434286098649
85,636230434286203908
85,636230434286313807
85,636230434286418873
85,636230434286524157
85,636230434286629026
85,636230434286734140
85,636230434286839176
85,636230434286944246
85,636230434287049509
85,636230434287154584
85,636230434287259471
85,636230434287364567
85,636230434287474641
85,636230434287579882
85,636230434287689965
85,636230434287794877
85,636230434287899926
85,636230434288005052
85,636230434288115083
85,636230434288220342
85,636230434288325417
86,636230434288430307
86,636230434288535395
86,636230434288640666
86,636230434288745544
86,636230434288855606
86,636230434288960697
86,636230434289065776
86,636230434289170830
86,636230434289276101
86,636230434289380983
86,636230434289486242
86,636230434289591129
86,636230434289701395
86,636230434289806282
86,636230434289911378
86,636230434290016431
86,636230434290121694
86,636230434290226764
86,636230434290331664
86,636230434290441755
86,636230434290546808
86,636230434290656899
86,636230434290767179
86,636230434290872057
86,636230434290977298
86,636230434291082197
86,636230434291187264
86,636230434291297346
86,636230434291402605
86,636230434291507573
86,636230434291612583
86,636230434291717658
86,636230434291822715
86,636230434291927987
86,636230434292033062
86,636230434292138124
86,636230434292243031
86,636230434292348286
86,636230434292453365
86,636230434292558422
86,636230434292663330
86,636230434292768606
86,636230434292873488
86,636230434292978730
86,636230434293083762
86,636230434293188708
86,636230434293293945
86,636230434293398862
86,636230434293504103
86,636230434293614105
86,636230434293719068
86,636230434293824139
86,636230434293924394
86,636230434294029285
86,636230434294139521
86,636230434294244463
86,636230434294349529
86,636230434294454596
86,636230434294559854
86,636230434294664933
86,636230434294769815
86,636230434294874903
86,636230434294980145
88,636230434295085052
88,636230434295190294
88,636230434295295202
88,636230434295400264
88,636230434295505518
88,636230434295610614
88,636230434295720487
88,636230434295825579
88,636230434295930641
88,636230434296035711
88,636230434296140970
88,636230434296246053
88,636230434296350948
88,636230434296456198
88,636230434296561273
88,636230434296666378
88,636230434296771414
88,636230434296876326
88,636230434296981572
88,636230434297086651
88,636230434297191550
88,636230434297296792
88,636230434297406691
88,636230434297511770
88,636230434297616840
88,636230434297722099
88,636230434297827173
88,636230434297932248
88,636230434298037323
88,636230434298142393
88,636230434298252288
88,636230434298357371
88,636230434298462446
88,636230434298567512
88,636230434298672587
88,636230434298777849
88,636230434298882736
88,636230434298987823
88,636230434299092907
88,636230434299198148
88,636230434299303219
88,636230434299408127
88,636230434299513206
88,636230434299618263
88,636230434299728337
88,636230434299833421
88,636230434299938679
88,636230434300048753
88,636230434300158643
88,636230434300263902
88,636230434300368985
88,636230434300473885
88,636230434300578951
88,636230434300684025
88,636230434300784276
88,636230434300889163
88,636230434300994255
88,636230434301099329
88,636230434301204391
88,636230434301309654
88,636230434301414541
88,636230434301519611
88,636230434301624878
88,636230434301729949
88,636230434301834839
88,636230434301939927
88,636230434302045002
88,636230434302155080
88,636230434302260322
88,636230434302365401
88,636230434302470313
88,636230434302575379
88,636230434302680620
88,636230434302785699
88,636230434302890774
88,636230434302995883
88,636230434303100735
88,636230434303205827
88,636230434303311073
88,636230434303415960
88,636230434303521051
88,636230434303626113
88,636230434303731201
88,636230434303836284
88,636230434303941517
88,636230434304046592
88,636230434304151508
88,636230434304256557
88,636230434304366819
88,636230434304471719
88,636230434304576789
88,636230434304681868
88,636230434304782119
88,636230434304887202
88,636230434304992281
88,636230434305097365
88,636230434305202234
88,636230434305312312
88,636230434305417451
88,636230434305527649
88,636230434305632720
88,636230434305737615
88,636230434305842702
88,636230434305947781
88,636230434306053019
88,636230434306157927
88,636230434306262984
88,636230434306368247
88,636230434306473322
88,636230434306578298
88,636230434306688295
88,636230434306793374
88,636230434306898453
88,636230434307003511
88,636230434307108603
88,636230434307213660
88,636230434307318739
88,636230434307423814
88,636230434307533892
88,636230434307638971
88,636230434307744059
88,636230434307849116
88,636230434307954191
88,636230434308059291
88,636230434308164340
88,636230434308269415
89,636230434308374486
89,636230434308479749
89,636230434308584644
89,636230434308689735
89,636230434308794806
89,636230434308899864
89,636230434309005118
89,636230434309110201
89,636230434309215088
89,636230434309320158
89,636230434309425331
89,636230434309530325
89,636230434309640403
89,636230434309745465
89,636230434309850557
89,636230434309960618
89,636230434310065710
89,636230434310170780
89,636230434310276022
89,636230434310380917
89,636230434310486175
89,636230434310591083
89,636230434310696141
89,636230434310801404
89,636230434310906303
89,636230434311011365
89,636230434311116440
89,636230434311221698
89,636230434311326777
89,636230434311431668
89,636230434311541742
89,636230434311641993
89,636230434311751904
89,636230434311856962
89,636230434311962054
89,636230434312067129
89,636230434312172186
89,636230434312277282
89,636230434312382353
89,636230434312487599
89,636230434312592502
89,636230434312697577
89,636230434312802639
89,636230434312907718
89,636230434313012788
89,636230434313117872
89,636230434313222951
89,636230434313328021
89,636230434313433109
89,636230434313538175
89,636230434313643420
89,636230434313753328
89,636230434313858385
89,636230434313963477
89,636230434314068552
89,636230434314173627
89,636230434314278872
89,636230434314383763
89,636230434314488851
89,636230434314593908
89,636230434314694163
89,636230434314804062
89,636230434314909141
89,636230434315014229
89,636230434315119290
89,636230434315224549
89,636230434315329448
89,636230434315434711
89,636230434315539598
88,636230434315644869
88,636230434315754751
88,636230434315859997
88,636230434315964883
88,636230434316070146
88,636230434316175217
88,636230434316280125
88,636230434316390370
88,636230434316495278
88,636230434316600386
88,636230434316705427
88,636230434316810668
88,636230434316915747
88,636230434317020638
88,636230434317125726
88,636230434317230783
88,636230434317341063
88,636230434317451150
88,636230434317556199
88,636230434317666303
88,636230434317771193
88,636230434317876431
88,636230434317981334
88,636230434318086580
88,636230434318191659
88,636230434318296729
88,636230434318401633
88,636230434318506699
88,636230434318611791
88,636230434318716857
88,636230434318821941
88,636230434318931993
88,636230434319037094
88,636230434319142168
88,636230434319247226
88,636230434319352305
88,636230434319457371
88,636230434319562459
88,636230434319667722
88,636230434319772591
88,636230434319877858
88,636230434319982740
88,636230434320092836
88,636230434320198077
88,636230434320302972
88,636230434320408051
88,636230434320518326
88,636230434320623230
88,636230434320733291
88,636230434320843365
88,636230434320948431
88,636230434321053690
88,636230434321163773
88,636230434321268843
88,636230434321373918
88,636230434321478817
88,636230434321583888
88,636230434321689142
88,636230434321794242
88,636230434321899107
88,636230434321999478
88,636230434322099724
88,636230434322209627
88,636230434322319693
88,636230434322424785
88,636230434322530026
88,636230434322634921
87,636230434322739992
87,636230434322845084
87,636230434322950163
87,636230434323060403
87,636230434323170482
87,636230434323275381
87,636230434323380456
87,636230434323485526
87,636230434323595600
87,636230434323700867
87,636230434323805758
87,636230434323915828
87,636230434324020903
87,636230434324126161
87,636230434324231048
87,636230434324336131
87,636230434324441394
87,636230434324546460
87,636230434324651539
87,636230434324756443
87,636230434324861684
87,636230434324966592
87,636230434325071667
87,636230434325176913
87,636230434325281795
87,636230434325392057
87,636230434325497145
87,636230434325602048
87,636230434325707286
87,636230434325812176
87,636230434325917264
87,636230434326022514
87,636230434326127418
87,636230434326232492
87,636230434326337738
87,636230434326447650
87,636230434326557719
87,636230434326662901
87,636230434326772872
87,636230434326878122
87,636230434326983013
87,636230434327088280
87,636230434327193347
87,636230434327298417
87,636230434327403496
87,636230434327508395
87,636230434327613462
87,636230434327718549
87,636230434327823615
87,636230434327928870
87,636230434328033769
87,636230434328139019
87,636230434328243914
87,636230434328344161
87,636230434328449047
87,636230434328554126
87,636230434328659218
87,636230434328769463
87,636230434328874538
87,636230434328979441
87,636230434329084516
87,636230434329189766
87,636230434329294670
87,636230434329399911
87,636230434329504995
87,636230434329614975
87,636230434329719951
87,636230434329825039
87,636230434329930122
87,636230434330040384
87,636230434330145262
87,636230434330250349
87,636230434330360599
87,636230434330470493
87,636230434330580584
87,636230434330685834
87,636230434330790905
87,636230434330895796
87,636230434331000883
87,636230434331106125
87,636230434331216023
87,636230434331321111
87,636230434331426357
87,636230434331531431
87,636230434331636327
87,636230434331741581
87,636230434331851480
87,636230434331956550
87,636230434332061809
87,636230434332166721
87,636230434332271774
87,636230434332377033
87,636230434332482107
87,636230434332586998
87,636230434332692090
87,636230434332797148
87,636230434332902222
87,636230434333007297
87,636230434333112368
87,636230434333217631
87,636230434333322705
87,636230434333427592
87,636230434333537687
87,636230434333642745
87,636230434333747819
87,636230434333852903
87,636230434333957969
87,636230434334063232
87,636230434334168140
87,636230434334278205
87,636230434334383455
87,636230434334488367
87,636230434334593438
87,636230434334698679
87,636230434334803767
87,636230434334913832
87,636230434335018728
87,636230434335128802
87,636230434335233898
87,636230434335338968
87,636230434335444047
87,636230434335549118
87,636230434335654179
87,636230434335759442
87,636230434335864534
87,636230434335969587
87,636230434336074487
87,636230434336179570
87,636230434336284628
87,636230434336394890
87,636230434336499802
87,636230434336604855
87,636230434336705119
87,636230434336810001
87,636230434336915256
87,636230434337020155
87,636230434337125238
87,636230434337230313
87,636230434337340396
87,636230434337450636
87,636230434337555553
87,636230434337660610
87,636230434337765869
87,636230434337870768
87,636230434337975826
87,636230434338080905
87,636230434338185976
87,636230434338291084
87,636230434338396129
87,636230434338501208
87,636230434338611295
87,636230434338716357
87,636230434338821444
87,636230434338926695
87,636230434339031598
87,636230434339136844
87,636230434339241735
87,636230434339346827
87,636230434339452072
87,636230434339556955
87,636230434339662213
87,636230434339767121
87,636230434339872358
87,636230434339977249
87,636230434340082333
87,636230434340192590
87,636230434340297481
87,636230434340402740
87,636230434340507626
87,636230434340612718
87,636230434340717784
87,636230434340823039
87,636230434340933121
87,636230434341038188
87,636230434341143262
87,636230434341248153
87,636230434341353420
87,636230434341458303
87,636230434341563570
87,636230434341668469
87,636230434341773531
87,636230434341878790
87,636230434341983702
87,636230434342088755
87,636230434342193843
87,636230434342303912
87,636230434342409188
87,636230434342514241
87,636230434342619141
87,636230434342724207
87,636230434342829470
87,636230434342934540
87,636230434343039611
87,636230434343144690
87,636230434343249769
87,636230434343354655
87,636230434343459730
87,636230434343569988
87,636230434343679904
85,636230434343789961
85,636230434343895228
85,636230434344000302
85,636230434344105185
85,636230434344210259
85,636230434344315347
85,636230434344420417
85,636230434344530491
85,636230434344635583
85,636230434344740641
85,636230434344845899
85,636230434344950803
85,636230434345056053
85,636230434345160953
85,636230434345271031
85,636230434345376281
85,636230434345481351
85,636230434345586422
85,636230434345691317
85,636230434345796404
85,636230434345901650
85,636230434346006554
85,636230434346116799
85,636230434346221690
85,636230434346331777
85,636230434346436851
85,636230434346542101
85,636230434346647210
85,636230434346752071
85,636230434346857330
85,636230434346962216
85,636230434347067475
85,636230434347172379
85,636230434347277453
85,636230434347382703
85,636230434347492589
85,636230434347597668
85,636230434347702743
85,636230434347812838
85,636230434347918088
85,636230434348022975
85,636230434348128050
85,636230434348233146
85,636230434348343198
85,636230434348448282
85,636230434348553365
85,636230434348658431
85,636230434348768505
85,636230434348873576
85,636230434348978663
85,636230434349083734
85,636230434349188813
85,636230434349293879
85,636230434349394134
85,636230434349499033
85,636230434349604283
85,636230434349709354
85,636230434349814249
85,636230434349919324
85,636230434350024398
85,636230434350129473
85,636230434350234548
85,636230434350339639
85,636230434350444697
85,636230434350544948
85,636230434350649843
85,636230434350755102
85,636230434350860176
85,636230434350965272
85,636230434351070168
85,636230434351180216
85,636230434351285487
85,636230434351390387
83,636230434351495444
83,636230434351600703
83,636230434351705589
83,636230434351810668
83,636230434351915824
83,636230434352020822
83,636230434352126072
83,636230434352230980
83,636230434352341225
83,636230434352446120
83,636230434352551199
83,636230434352656325
83,636230434352761353
83,636230434352866603
83,636230434352971507
83,636230434353081576
83,636230434353186827
83,636230434353296738
83,636230434353401800
83,636230434353507059
83,636230434353611949
83,636230434353712200
83,636230434353817112
83,636230434353922354
83,636230434354027245
83,636230434354132315
83,636230434354242577
83,636230434354347661
83,636230434354452727
83,636230434354557622
83,636230434354662714
83,636230434354767788
83,636230434354872842
83,636230434354977929
83,636230434355082991
83,636230434355188258
83,636230434355293350
83,636230434355398220
83,636230434355503290
83,636230434355613373
83,636230434355718456
83,636230434355823518
83,636230434355928648
83,636230434356033680
83,636230434356133944
83,636230434356238834
83,636230434356344085
83,636230434356449146
83,636230434356554059
83,636230434356664124
83,636230434356774202
83,636230434356879286
83,636230434356989351
83,636230434357094610
83,636230434357199684
83,636230434357304588
83,636230434357414666
83,636230434357519728
83,636230434357624991
83,636230434357730062
83,636230434357834952
83,636230434357940027
83,636230434358045123
83,636230434358145528
83,636230434358245792
83,636230434358350678
83,636230434358455988
84,636230434358561011
84,636230434358666090
84,636230434358771165
84,636230434358876244
84,636230434358981131
84,636230434359091222
84,636230434359196279
84,636230434359301551
84,636230434359406446
84,636230434359516524
84,636230434359621582
84,636230434359726674
84,636230434359831924
84,636230434359936986
84,636230434360042069
84,636230434360146973
84,636230434360252030
84,636230434360357131
84,636230434360462180
84,636230434360567259
84,636230434360677517
84,636230434360782591
84,636230434360887499
84,636230434360992578
84,636230434361097631
84,636230434361202715
84,636230434361307781
84,636230434361417859
84,636230434361522934
84,636230434361628201
84,636230434361733272
84,636230434361838342
84,636230434361943233
84,636230434362048320
84,636230434362158386
84,636230434362263461
84,636230434362368552
84,636230434362473794
84,636230434362578869
84,636230434362683943
84,636230434362789022
84,636230434362893930
84,636230434362999167
84,636230434363104058
84,636230434363209154
84,636230434363314225
84,636230434363419291
84,636230434363524374
84,636230434363629449
84,636230434363734511
84,636230434363839581
84,636230434363944652
84,636230434364049915
84,636230434364159822
84,636230434364265068
84,636230434364370151
84,636230434364475243
84,636230434364580296
84,636230434364685375
84,636230434364790441
84,636230434364895336
84,636230434365000424
84,636230434365105482
84,636230434365210573
84,636230434365315635
84,636230434365420710
84,636230434365525785
84,636230434365631073
84,636230434365735943
84,636230434365836219
84,636230434365941260
84,636230434366046155
84,636230434366156413
84,636230434366266491
84,636230434366371566
84,636230434366476640
84,636230434366581715
84,636230434366686602
84,636230434366791681
84,636230434366896755
84,636230434367001851
84,636230434367107084
84,636230434367211979
84,636230434367317071
84,636230434367422129
84,636230434367527204
84,636230434367632462
84,636230434367737357
84,636230434367842445
84,636230434367947716
84,636230434368052783
84,636230434368157669
84,636230434368262735
84,636230434368372822
84,636230434368482883
84,636230434368588146
84,636230434368693221
84,636230434368798291
84,636230434368903182
84,636230434369008257
84,636230434369118335
84,636230434369228413
84,636230434369333505
84,636230434369438567
84,636230434369543650
84,636230434369648712
84,636230434369753808
84,636230434369858866
84,636230434369968961
84,636230434370074019
84,636230434370179273
84,636230434370284164
84,636230434370394260
84,636230434370499343
84,636230434370599572
84,636230434370704480
84,636230434370814558
84,636230434370919620
84,636230434371024695
84,636230434371129770
84,636230434371234862
84,636230434371344931
84,636230434371450010
77,636230434371560255
77,636230434371665150
77,636230434371770251
77,636230434371875480
77,636230434371980554
77,636230434372085445
77,636230434372190520
77,636230434372300790
77,636230434372405673
77,636230434372510752
77,636230434372621005
77,636230434372725896
77,636230434372830975
77,636230434372936230
77,636230434373041309
77,636230434373146383
77,636230434373251454
77,636230434373356537
77,636230434373461612
77,636230434373566691
77,636230434373671573
77,636230434373776669
77,636230434373881740
77,636230434373986981
77,636230434374092094
77,636230434374197148
77,636230434374302235
77,636230434374407122
77,636230434374512171
77,636230434374617250
77,636230434374722504
77,636230434374827583
77,636230434374932653
77,636230434375037732
77,636230434375142640
77,636230434375247882
77,636230434375357776
77,636230434375463031
77,636230434375567939
77,636230434375673013
77,636230434375778259
77,636230434375883167
77,636230434375988229
77,636230434376088480
77,636230434376193550
77,636230434376298462
77,636230434376403516
77,636230434376508779
77,636230434376618669
77,636230434376723748
77,636230434376829002
77,636230434376934085
77,636230434377039151
77,636230434377144230
77,636230434377249113
77,636230434377349372
77,636230434377454280
77,636230434377559517
77,636230434377664596
77,636230434377769684
77,636230434377874562
77,636230434377979636
77,636230434378084720
77,636230434378189807
77,636230434378295049
77,636230434378399952
77,636230434378505215
77,636230434378610085
77,636230434378715181
77,636230434378825430
77,636230434378930313
77,636230434379035400
77,636230434379140475
77,636230434379245537
77,636230434379350616
77,636230434379455703
77,636230434379565786
77,636230434379671027
77,636230434379775910
77,636230434379881001
77,636230434379986260
77,636230434380091142
77,636230434380196392
77,636230434380306325
77,636230434380411370
77,636230434380516466
77,636230434380621725
77,636230434380726808
77,636230434380831878
77,636230434380936739
77,636230434381041814
77,636230434381146902
77,636230434381251963
77,636230434381357038
77,636230434381462130
77,636230434381567188
77,636230434381672446
77,636230434381777521
77,636230434381882596
77,636230434381987679
77,636230434382092574
77,636230434382202652
77,636230434382312722
77,636230434382417797
77,636230434382522880
77,636230434382628130
77,636230434382733038
77,636230434382838309
77,636230434382943183
77,636230434383048237
77,636230434383153508
77,636230434383258407
77,636230434383363465
77,636230434383468719
77,636230434383573610
77,636230434383683693
77,636230434383788951
77,636230434383893859
77,636230434383998934
77,636230434384104180
77,636230434384209071
77,636230434384319157
77,636230434384424403
77,636230434384529303
77,636230434384634386
77,636230434384739469
77,636230434384844522
77,636230434384949798
77,636230434385054685
77,636230434385159926
77,636230434385264834
77,636230434385369892
77,636230434385475150
70,636230434385580225
70,636230434385685116
70,636230434385790375
70,636230434385895278
70,636230434386000340
70,636230434386105440
70,636230434386210498
70,636230434386315577
70,636230434386425643
70,636230434386530717
70,636230434386635792
70,636230434386741093
70,636230434386845959
70,636230434386951239
70,636230434387056292
70,636230434387166379
70,636230434387276260
70,636230434387381515
70,636230434387486585
70,636230434387591668
70,636230434387696730
70,636230434387801638
70,636230434387906713
70,636230434388016791
70,636230434388127036
70,636230434388231931
70,636230434388337015
70,636230434388442265
70,636230434388547160
70,636230434388652226
70,636230434388757523
70,636230434388862392
70,636230434388967634
70,636230434389077550
70,636230434389182620
70,636230434389287691
70,636230434389392770
70,636230434389498011
70,636230434389602915
70,636230434389707989
70,636230434389813240
70,636230434389918143
70,636230434390023205
70,636230434390128464
70,636230434390233355
70,636230434390338613
70,636230434390443521
70,636230434390548583
70,636230434390653666
70,636230434390758741
70,636230434390863816
70,636230434390969061
70,636230434391073957
70,636230434391179207
70,636230434391284093
70,636230434391389369
70,636230434391494247
70,636230434391604509
70,636230434391709417
70,636230434391814492
70,636230434391919549
70,636230434392024808
70,636230434392129891
70,636230434392234791
70,636230434392340036
70,636230434392444953
70,636230434392554997
70,636230434392660264
70,636230434392765159
70,636230434392870405
70,636230434392975488
70,636230434393080584
70,636230434393185655
70,636230434393290747
70,636230434393395603
70,636230434393500862
70,636230434393605770
70,636230434393711016
70,636230434393815898
70,636230434393925989
70,636230434394036247
70,636230434394141150
70,636230434394246204
70,636230434394351480
70,636230434394456353
70,636230434394561441
70,636230434394671699
70,636230434394776585
70,636230434394881840
70,636230434394986743
70,636230434395096826
70,636230434395202067
70,636230434395312180
70,636230434395417062
70,636230434395522299
70,636230434395632378
70,636230434395737286
70,636230434395842339
70,636230434395947431
70,636230434396052488
70,636230434396157747
70,636230434396262826
70,636230434396367730
70,636230434396472791
70,636230434396578059
70,636230434396682937
70,636230434396788016
70,636230434396893274
70,636230434396998165
70,636230434397103240
70,636230434397213318
70,636230434397318401
70,636230434397423485
70,636230434397528722
70,636230434397633630
70,636230434397738683
70,636230434397843946
70,636230434397948854
70,636230434398053912
70,636230434398158986
70,636230434398264091
70,636230434398369324
70,636230434398474394
70,636230434398579302
70,636230434398684552
70,636230434398789447
70,636230434398894514
70,636230434398999631
70,636230434399104659
70,636230434399209926
70,636230434399314996
70,636230434399420105
70,636230434399524975
70,636230434399630028
70,636230434399735295
70,636230434399840212
70,636230434399945256
70,636230434400055527
70,636230434400160593
70,636230434400265484
70,636230434400375742
70,636230434400480641
70,636230434400590733
70,636230434400700807
70,636230434400806052
70,636230434400911127
70,636230434401016035
70,636230434401121294
70,636230434401226176
70,636230434401331246
70,636230434401431493
70,636230434401536572
70,636230434401641651
70,636230434401746721
70,636230434401851633
70,636230434401956866
70,636230434402061762
70,636230434402162017
70,636230434402266912
70,636230434402372175
70,636230434402477258
70,636230434402582127
70,636230434402687399
70,636230434402792298
70,636230434402897548
70,636230434403002435
70,636230434403107505
70,636230434403217588
70,636230434403327666
70,636230434403432754
70,636230434403542999
70,636230434403647907
70,636230434403753152
70,636230434403858077
70,636230434403963298
70,636230434404068188
70,636230434404173447
70,636230434404278530
70,636230434404383430
70,636230434404488504
70,636230434404593742
70,636230434404698637
70,636230434404803900
70,636230434404908803
70,636230434405013861
70,636230434405118957
70,636230434405224224
70,636230434405329098
70,636230434405434168
70,636230434405539234
70,636230434405644493
70,636230434405749380
70,636230434405854647
70,636230434405959717
70,636230434406064612
70,636230434406164863
70,636230434406269754
70,636230434406374829
70,636230434406480087
71,636230434406590166
71,636230434406695091
71,636230434406800131
71,636230434406905390
71,636230434407010469
71,636230434407115355
71,636230434407220622
71,636230434407325530
71,636230434407430588
71,636230434407535671
71,636230434407640733
71,636230434407745808
71,636230434407856061
71,636230434407960969
71,636230434408066048
71,636230434408171127
71,636230434408281184
71,636230434408391263
71,636230434408496530
71,636230434408601622
71,636230434408706666
71,636230434408816569
71,636230434408921832
71,636230434409026903
71,636230434409131819
71,636230434409237048
71,636230434409341960
71,636230434409447026
71,636230434409552101
71,636230434409657347
71,636230434409762250
71,636230434409867329
71,636230434409972400
71,636230434410077650
71,636230434410187724
71,636230434410292798
71,636230434410397689
71,636230434410502760
71,636230434410608023
71,636230434410712918
71,636230434410823180
71,636230434410933070
71,636230434411038333
71,636230434411143241
71,636230434411248482
71,636230434411353373
71,636230434411458439
71,636230434411568526
71,636230434411673614
71,636230434411778676
71,636230434411883930
71,636230434411988838
71,636230434412093908
71,636230434412198987
71,636230434412304066
71,636230434412409299
71,636230434412514207
71,636230434412624268
71,636230434412729343
71,636230434412834418
71,636230434412939514
71,636230434413044601
71,636230434413149655
71,636230434413254721
71,636230434413359804
71,636230434413464888
71,636230434413569945
71,636230434413675024
71,636230434413780099
71,636230434413885182
71,636230434413995243
71,636230434414100322
71,636230434414205414
71,636230434414310467
71,636230434414415546
71,636230434414520638
71,636230434414625696
71,636230434414730775
71,636230434414835858
71,636230434414940916
71,636230434415051187
71,636230434415161102
71,636230434415266164
71,636230434415371226
71,636230434415481488
71,636230434415586388
71,636230434415686630
71,636230434415791529
71,636230434415896630
71,636230434416001858
71,636230434416106924
71,636230434416211832
71,636230434416316894
71,636230434416422157
71,636230434416527044
71,636230434416632136
71,636230434416737193
71,636230434416837461
71,636230434416942356
71,636230434417047422
71,636230434417152506
71,636230434417257567
71,636230434417367830
71,636230434417472733
71,636230434417577975
71,636230434417687869
71,636230434417792948
71,636230434417898027
71,636230434418003119
71,636230434418113172
71,636230434418218430
71,636230434418323321
71,636230434418428417
71,636230434418533663
71,636230434418638562
71,636230434418743637
71,636230434418848883
71,636230434418953795
71,636230434419058848
71,636230434419163936
71,636230434419269015
71,636230434419374256
71,636230434419479335
71,636230434419589405
71,636230434419694317
71,636230434419799375
71,636230434419904467
71,636230434420014549
71,636230434420119616
71,636230434420224866
71,636230434420329765
71,636230434420434844
71,636230434420539897
71,636230434420644989
71,636230434420750068
78,636230434420855143
78,636230434420965221
78,636230434421070274
78,636230434421175371
78,636230434421280424
78,636230434421385499
78,636230434421490590
78,636230434421600844
78,636230434421705726
78,636230434421810835
78,636230434421920884
78,636230434422025975
78,636230434422126218
78,636230434422236343
78,636230434422341182
78,636230434422446270
78,636230434422551512
78,636230434422656419
78,636230434422761498
78,636230434422866736
78,636230434422971819
78,636230434423076735
78,636230434423181776
78,636230434423286953
78,636230434423397117
78,636230434423502025
78,636230434423612266
78,636230434423717182
78,636230434423822236
78,636230434423932327
78,636230434424037393
78,636230434424142463
78,636230434424247538
78,636230434424352626
78,636230434424457705
78,636230434424562762
78,636230434424667850
78,636230434424772912
78,636230434424877982
78,636230434424983083
78,636230434425088149
78,636230434425193223
78,636230434425298469
78,636230434425403364
78,636230434425508448
78,636230434425613514
78,636230434425718584
78,636230434425823843
78,636230434425928922
78,636230434426033996
78,636230434426138904
78,636230434426243988
78,636230434426349037
78,636230434426454111
78,636230434426559366
78,636230434426669303
78,636230434426774343
78,636230434426879440
78,636230434426984519
78,636230434427089747
78,636230434427199800
78,636230434427304725
78,636230434427414803
78,636230434427524864
78,636230434427630127
78,636230434427735031
78,636230434427840114
78,636230434427945168
78,636230434428050238
84,636230434428155522
84,636230434428260400
84,636230434428365471
84,636230434428465721
84,636230434428570617
84,636230434428675867
84,636230434428780950
84,636230434428886029
84,636230434428991112
84,636230434429095999
84,636230434429196241
84,636230434429301149
84,636230434429406228
84,636230434429511469
84,636230434429616373
84,636230434429716607
84,636230434429821690
84,636230434429926572
84,636230434430026853
84,636230434430131911
84,636230434430236797
84,636230434430342064
84,636230434430452134
84,636230434430557209
84,636230434430662104
84,636230434430767174
84,636230434430872270
84,636230434430977349
84,636230434431082403
84,636230434431187486
84,636230434431292740
84,636230434431397623
84,636230434431497878
84,636230434431602952
84,636230434431712842
84,636230434431817921
84,636230434431928184
84,636230434432033254
84,636230434432138333
84,636230434432243224
84,636230434432348320
84,636230434432453395
84,636230434432553628
84,636230434432658699
84,636230434432763808
84,636230434432868669
84,636230434432973765
84,636230434433078998
84,636230434433184090
84,636230434433293980
84,636230434433399238
84,636230434433504133
84,636230434433609383
84,636230434433714458
84,636230434433819349
84,636230434433924599
84,636230434434029674
84,636230434434134757
84,636230434434244660
84,636230434434344898
84,636230434434449797
84,636230434434554868
84,636230434434659955
84,636230434434765034
84,636230434434870276
84,636230434434975355
84,636230434435080254
84,636230434435185312
84,636230434435290391
84,636230434435395461
84,636230434435500724
84,636230434435605611
84,636230434435710878
82,636230434435815777
82,636230434435920843
82,636230434436025914
82,636230434436131177
82,636230434436236076
82,636230434436341155
82,636230434436446401
82,636230434436551305
82,636230434436656371
82,636230434436761454
82,636230434436866524
82,636230434436971599
82,636230434437076661
82,636230434437181731
82,636230434437287033
82,636230434437391898
82,636230434437497152
82,636230434437602223
82,636230434437712113
82,636230434437817192
82,636230434437922279
82,636230434438027525
82,636230434438132412
82,636230434438237491
82,636230434438337742
82,636230434438442816
82,636230434438547900
82,636230434438657790
82,636230434438762886
82,636230434438867939
82,636230434438973039
82,636230434439078084
82,636230434439183159
82,636230434439288247
82,636230434439393471
82,636230434439498571
82,636230434439603471
82,636230434439713536
82,636230434439818611
82,636230434439923686
82,636230434440028773
82,636230434440133835
82,636230434440234090
82,636230434440338985
82,636230434440444235
82,636230434440549126
82,636230434440654389
82,636230434440764288
82,636230434440869367
82,636230434440974428
82,636230434441079696
82,636230434441184728
82,636230434441289657
82,636230434441399923
82,636230434441504810
82,636230434441609927
82,636230434441719963
82,636230434441825033
82,636230434441930296
82,636230434442040375
82,636230434442145282
82,636230434442250336
82,636230434442360431
82,636230434442465677
83,636230434442570752
83,636230434442675643
83,636230434442780722
83,636230434442885890
83,636230434442990880
83,636230434443095959
83,636230434443201029
83,636230434443306108
83,636230434443411166
83,636230434443521244
83,636230434443626331
83,636230434443731586
83,636230434443836648
83,636230434443946542
83,636230434444051809
83,636230434444156691
83,636230434444261959
83,636230434444372028
83,636230434444477103
83,636230434444581998
83,636230434444687090
83,636230434444792327
83,636230434444897406
83,636230434445002310
83,636230434445107380
83,636230434445212635
83,636230434445317538
83,636230434445422592
83,636230434445532854
83,636230434445637963
83,636230434445742819
83,636230434445852902
83,636230434445958161
83,636230434446063235
83,636230434446168314
83,636230434446273385
83,636230434446378280
83,636230434446483350
83,636230434446588446
83,636230434446693512
83,636230434446798763
83,636230434446908665
83,636230434447013732
83,636230434447118819
83,636230434447223898
83,636230434447328969
83,636230434447439047
83,636230434447544100
83,636230434447649179
83,636230434447754250
83,636230434447859329
83,636230434447964421
83,636230434448074670
83,636230434448179740
83,636230434448284819
83,636230434448389890
83,636230434448494793
83,636230434448599877
83,636230434448704926
83,636230434448810009
83,636230434448910260
83,636230434449015155
83,636230434449120234
83,636230434449225313
83,636230434449335408
83,636230434449440453
84,636230434449545716
84,636230434449650808
84,636230434449755690
84,636230434449860756
84,636230434449965822
84,636230434450075905
84,636230434450180980
84,636230434450281239
84,636230434450386147
84,636230434450491217
84,636230434450596463
84,636230434450701534
84,636230434450806433
84,636230434450916516
84,636230434451021761
84,636230434451126836
84,636230434451231748
84,636230434451336806
84,636230434451441876
84,636230434451542131
84,636230434451647215
84,636230434451752281
84,636230434451857172
84,636230434451962246
84,636230434452067505
84,636230434452177587
84,636230434452282675
84,636230434452392749
84,636230434452497815
84,636230434452607889
84,636230434452712964
84,636230434452817859
84,636230434452922938
84,636230434453028017
84,636230434453133263
84,636230434453238338
84,636230434453343228
84,636230434453443483
84,636230434453548383
84,636230434453653462
84,636230434453758537
84,636230434453863594
84,636230434453968861
84,636230434454073932
84,636230434454179006
84,636230434454283910
84,636230434454394155
84,636230434454499234
84,636230434454604309
84,636230434454709200
84,636230434454819282
84,636230434454924537
84,636230434455029637
84,636230434455134519
84,636230434455239756
84,636230434455344669
84,636230434455449739
84,636230434455554810
84,636230434455660068
84,636230434455764963
84,636230434455870042
84,636230434455975100
84,636230434456080187
84,636230434456185438
84,636230434456290504
84,636230434456400415
84,636230434456505473
84,636230434456610556
84,636230434456715631
84,636230434456820889
84,636230434456925960
84,636230434457031030
84,636230434457135925
84,636230434457241013
84,636230434457346092
84,636230434457451162
84,636230434457556220
84,636230434457661295
84,636230434457766562
84,636230434457871628
84,636230434457976707
84,636230434458081594
84,636230434458186685
84,636230434458291760
84,636230434458396826
84,636230434458507080
84,636230434458611975
84,636230434458717234
84,636230434458822308
84,636230434458932203
84,636230434459037466
84,636230434459142532
84,636230434459247431
84,636230434459352502
84,636230434459462576
84,636230434459567839
84,636230434459677737
84,636230434459787815
84,636230434459892886
84,636230434459998145
84,636230434460103048
84,636230434460208110
84,636230434460313369
84,636230434460418255
84,636230434460523330
84,636230434460628597
84,636230434460733484
84,636230434460838571
84,636230434460938809
84,636230434461043700
84,636230434461148775
84,636230434461249038
84,636230434461353942
84,636230434461464007
84,636230434461569074
84,636230434461674349
84,636230434461779411
84,636230434461884490
84,636230434461989381
84,636230434462094451
84,636230434462199522
84,636230434462304806
84,636230434462409889
84,636230434462514960
84,636230434462619829
84,636230434462724900
84,636230434462830154
84,636230434462935049
84,636230434463035304
84,636230434463140383
84,636230434463245266
84,636230434463350524
84,636230434463455603
84,636230434463565677
84,636230434463670585
84,636230434463775839
84,636230434463880717
84,636230434463985805
84,636230434464090875
84,636230434464195950
84,636230434464301025
84,636230434464406313
84,636230434464511174
84,636230434464611438
84,636230434464716316
84,636230434464821579
84,636230434464926461
84,636230434465036556
84,636230434465141618
84,636230434465246873
84,636230434465351763
84,636230434465457031
84,636230434465561917
84,636230434465667176
84,636230434465777254
84,636230434465882329
84,636230434465987404
84,636230434466092474
84,636230434466197373
84,636230434466302444
84,636230434466412732
84,636230434466517597
84,636230434466622877
84,636230434466727926
84,636230434466838008
84,636230434466942912
84,636230434467043150
84,636230434467148058
84,636230434467253299
84,636230434467358195
84,636230434467463453
84,636230434467573343
84,636230434467678606
84,636230434467783685
84,636230434467888572
84,636230434467993646
84,636230434468098717
84,636230434468203800
84,636230434468313874
84,636230434468418957
84,636230434468524024
84,636230434468629111
84,636230434468734383
84,636230434468839252
84,636230434468944506
84,636230434469054414
84,636230434469159471
84,636230434469264554
84,636230434469374624
84,636230434469479703
84,636230434469584778
84,636230434469689861
84,636230434469794927
84,636230434469905014
84,636230434470010085
84,636230434470115159
84,636230434470220230
84,636230434470325484
85,636230434470430572
85,636230434470535458
85,636230434470640529
85,636230434470745612
85,636230434470855682
85,636230434470960756
85,636230434471065835
85,636230434471170919
85,636230434471276169
85,636230434471381055
85,636230434471486314
85,636230434471591230
85,636230434471696292
85,636230434471801542
85,636230434471906613
85,636230434472011687
85,636230434472116591
85,636230434472226669
85,636230434472331915
85,636230434472436892
85,636230434472547068
85,636230434472651963
85,636230434472757047
85,636230434472862288
85,636230434472967401
85,636230434473072279
85,636230434473177345
85,636230434473282403
85,636230434473392498
85,636230434473497744
85,636230434473602631
85,636230434473707710
85,636230434473812789
85,636230434473917855
85,636230434474022934
85,636230434474128193
85,636230434474233079
85,636230434474338342
85,636230434474443233
85,636230434474548491
85,636230434474653378
85,636230434474758487
85,636230434474863536
85,636230434474968795
85,636230434475073882
85,636230434475183965
85,636230434475288851
85,636230434475393905
85,636230434475499163
85,636230434475604054
85,636230434475714149
85,636230434475819399
85,636230434475924286
85,636230434476029361
85,636230434476134624
85,636230434476239523
85,636230434476344773
85,636230434476449839
85,636230434476559751
85,636230434476664996
85,636230434476769917
85,636230434476879983
85,636230434476980221
85,636230434477085317
85,636230434477190186
86,636230434477295274
86,636230434477400348
86,636230434477505590
86,636230434477610481
86,636230434477715560
86,636230434477820814
86,636230434477925709
86,636230434478030805
86,636230434478136038
86,636230434478240946
86,636230434478346192
86,636230434478451079
86,636230434478556341
86,636230434478661228
86,636230434478766495
86,636230434478871570
86,636230434478976640
86,636230434479081531
86,636230434479186619
86,636230434479296902
86,636230434479401759
86,636230434479507017
86,636230434479611913
86,636230434479716983
86,636230434479822237
86,636230434479927145
86,636230434480032224
86,636230434480137290
86,636230434480237558
86,636230434480342441
86,636230434480447515
86,636230434480552761
86,636230434480657836
86,636230434480762911
86,636230434480867801
86,636230434480973064
86,636230434481078143
86,636230434481183043
86,636230434481288100
86,636230434481393179
86,636230434481498263
86,636230434481603508
86,636230434481708583
86,636230434481813478
86,636230434481918737
86,636230434482023807
86,636230434482128878
86,636230434482233952
86,636230434482338847
86,636230434482444106
86,636230434482549010
86,636230434482654256
86,636230434482759146
86,636230434482864405
86,636230434482969317
86,636230434483074550
86,636230434483179445
86,636230434483284524
86,636230434483389783
86,636230434483494862
86,636230434483599958
86,636230434483704819
86,636230434483809911
86,636230434483914973
86,636230434484020047
86,636230434484125135
86,636230434484230210
86,636230434484335451
86,636230434484440526
86,636230434484545434
86,636230434484650679
86,636230434484755566
86,636230434484860645
86,636230434484965733
86,636230434485070803
86,636230434485176049
86,636230434485281119
86,636230434485386019
86,636230434485491089
86,636230434485596181
86,636230434485701256
86,636230434485806527
86,636230434485911606
86,636230434486016467
86,636230434486121550
86,636230434486226612
86,636230434486326871
86,636230434486431942
86,636230434486536850
86,636230434486642108
86,636230434486747085
86,636230434486852070
86,636230434486957127
86,636230434487067210
86,636230434487172285
86,636230434487277364
86,636230434487382447
86,636230434487487693
86,636230434487592763
86,636230434487697671
86,636230434487802750
86,636230434487912815
86,636230434488013092
86,636230434488123140
86,636230434488228035
86,636230434488333123
86,636230434488438215
86,636230434488543452
86,636230434488648338
86,636230434488753405
86,636230434488858668
86,636230434488963575
86,636230434489068650
86,636230434489173892
86,636230434489278778
86,636230434489383857
86,636230434489488932
86,636230434489594011
86,636230434489694275
86,636230434489799170
86,636230434489909244
86,636230434490019493
86,636230434490124568
86,636230434490229642
86,636230434490339725
86,636230434490444607
86,636230434490554887
86,636230434490659953
87,636230434490764852
87,636230434490870094
87,636230434490975006
87,636230434491080252
87,636230434491185138
87,636230434491290230
87,636230434491400304
87,636230434491505383
87,636230434491610629
87,636230434491715520
87,636230434491820590
87,636230434491925665
87,636230434492030923
87,636230434492135818
87,636230434492241090
87,636230434492351151
87,636230434492456055
87,636230434492566300
87,636230434492671383
87,636230434492776265
87,636230434492881528
87,636230434492986624
87,636230434493091682
87,636230434493196564
87,636230434493301656
87,636230434493406718
87,636230434493511797
87,636230434493616863
87,636230434493721951
87,636230434493827205
87,636230434493932087
87,636230434494037179
87,636230434494147424
87,636230434494257340
87,636230434494367397
87,636230434494472655
87,636230434494577730
87,636230434494687821
87,636230434494792883
87,636230434494897795
87,636230434495003037
87,636230434495107928
87,636230434495212998
87,636230434495318090
87,636230434495423169
87,636230434495528406
87,636230434495638301
87,636230434495743568
87,636230434495848638
87,636230434495953546
87,636230434496058612
87,636230434496163862
87,636230434496268753
87,636230434496373828
87,636230434496479087
87,636230434496583999
87,636230434496689240
87,636230434496794306
87,636230434496899381
89,636230434497009280
89,636230434497114350
89,636230434497219455
89,636230434497324692
89,636230434497429591
89,636230434497534837
89,636230434497639754
89,636230434497744807
89,636230434497845058
89,636230434497949970
89,636230434498055028
89,636230434498160111
89,636230434498265173
89,636230434498370260
89,636230434498475506
89,636230434498580393
89,636230434498685656
89,636230434498795550
89,636230434498900625
89,636230434499005717
89,636230434499110967
89,636230434499215853
89,636230434499321103
89,636230434499425994
89,636230434499531073
89,636230434499636327
89,636230434499746410
89,636230434499851314
89,636230434499956384
89,636230434500061467
89,636230434500161710
89,636230434500271612
89,636230434500376691
89,636230434500481749
89,636230434500587021
89,636230434500692078
89,636230434500796986
89,636230434500902232
89,636230434501007307
89,636230434501112219
89,636230434501217460
89,636230434501322347
89,636230434501427439
89,636230434501532680
89,636230434501637588
89,636230434501742825
89,636230434501847716
89,636230434501957799
89,636230434502062895
89,636230434502163128
89,636230434502268028
89,636230434502373278
89,636230434502478353
89,636230434502583256
89,636230434502688331
89,636230434502793393
89,636230434502898463
89,636230434503003542
89,636230434503108617
89,636230434503213692
89,636230434503318762
89,636230434503424025
89,636230434503529104
89,636230434503633991
89,636230434503739245
89,636230434503844140
89,636230434503954398
89,636230434504064318
89,636230434504169371
89,636230434504279445
89,636230434504384704
89,636230434504494791
89,636230434504599677
89,636230434504704752
89,636230434504810011
89,636230434504914914
89,636230434505025001
89,636230434505130055
89,636230434505240321
89,636230434505345391
89,636230434505450299
89,636230434505555357
89,636230434505660445
89,636230434505765511
89,636230434505870577
89,636230434505975844
89,636230434506080743
89,636230434506185822
89,636230434506291060
89,636230434506395955
89,636230434506501213
89,636230434506606126
89,636230434506711359
89,636230434506816258
89,636230434506926554
89,636230434507031616
89,636230434507136481
89,636230434507241740
89,636230434507346815
89,636230434507451701
89,636230434507556973
89,636230434507661859
89,636230434507766930
89,636230434507877008
89,636230434507982100
89,636230434508087157
89,636230434508192245
89,636230434508297307
89,636230434508402578
89,636230434508512464
89,636230434508617556
89,636230434508727617
89,636230434508832692
89,636230434508937775
89,636230434509047853
89,636230434509152911
89,636230434509257986
89,636230434509368068
89,636230434509473327
89,636230434509578402
89,636230434509683292
89,636230434509788397
89,636230434509893438
89,636230434509998529
89,636230434510103677
89,636230434510208850
89,636230434510313920
89,636230434510418824
89,636230434510523971
89,636230434510628965
89,636230434510734057
89,636230434510839110
89,636230434510944377
89,636230434511049259
89,636230434511154343
89,636230434511259413
89,636230434511369491
89,636230434511474570
89,636230434511579649
89,636230434511684724
89,636230434511784971
89,636230434511890041
89,636230434511994932
89,636230434512100028
89,636230434512205270
89,636230434512310349
89,636230434512415415
89,636230434512525497
89,636230434512635392
89,636230434512740488
89,636230434512840717
89,636230434512945617
89,636230434513050867
89,636230434513160945
89,636230434513265836
89,636230434513376106
89,636230434513481006
89,636230434513581248
89,636230434513686156
89,636230434513791226
89,636230434513901288
89,636230434514006555
89,636230434514111629
89,636230434514216520
89,636230434514326594
89,636230434514431669
89,636230434514536744
89,636230434514641818
89,636230434514746897
89,636230434514851964
89,636230434514957047
89,636230434515062122
89,636230434515162411
89,636230434515272267
89,636230434515372522
89,636230434515477413
89,636230434515582693
89,636230434515687579
89,636230434515797657
89,636230434515902899
89,636230434516007803
89,636230434516112860
89,636230434516217952
89,636230434516323014
89,636230434516428084
89,636230434516533352
89,636230434516638242
89,636230434516743321
89,636230434516848392
89,636230434516953650
89,636230434517058554
89,636230434517163612
89,636230434517268870
89,636230434517373761
89,636230434517478836
89,636230434517583919
89,636230434517688990
89,636230434517794064
89,636230434517899135
88,636230434518004210
88,636230434518109297
88,636230434518214543
88,636230434518319434
88,636230434518424504
88,636230434518529763
88,636230434518634658
88,636230434518739745
88,636230434518844807
88,636230434518949878
88,636230434519059982
88,636230434519160215
88,636230434519265316
88,636230434519370198
88,636230434519475256
88,636230434519580343
88,636230434519690404
88,636230434519795500
88,636230434519905741
88,636230434520010653
88,636230434520115711
88,636230434520220803
88,636230434520325865
88,636230434520431119
88,636230434520536190
88,636230434520641097
88,636230434520746176
88,636230434520856255
88,636230434520961496
88,636230434521066387
88,636230434521171457
88,636230434521276746
88,636230434521381607
88,636230434521486866
88,636230434521591957
88,636230434521696835
88,636230434521801910
88,636230434521907173
88,636230434522017059
88,636230434522122134
88,636230434522227230
88,636230434522332300
88,636230434522437542
88,636230434522542450
88,636230434522647520
88,636230434522752599
88,636230434522857678
88,636230434522962766
88,636230434523067823
88,636230434523177893
88,636230434523282976
88,636230434523388038
88,636230434523493117
88,636230434523598367
88,636230434523703446
88,636230434523813524
88,636230434523923603
88,636230434524028489
88,636230434524133748
88,636230434524238827
88,636230434524343897
88,636230434524453796
88,636230434524558871
88,636230434524668949
88,636230434524774019
88,636230434524874279
88,636230434524979362
88,636230434525089248
88,636230434525194335
88,636230434525304401
88,636230434525414483
88,636230434525519554
88,636230434525629645
88,636230434525734702
88,636230434525839970
88,636230434525945040
88,636230434526050119
88,636230434526155018
88,636230434526260260
88,636230434526365168
88,636230434526470414
88,636230434526580488
88,636230434526685379
88,636230434526790637
88,636230434526895549
88,636230434527000795
88,636230434527105686
88,636230434527215760
88,636230434527320852
88,636230434527425935
88,636230434527535983
88,636230434527641280
88,636230434527751346
88,636230434527856228
88,636230434527961474
88,636230434528066369
88,636230434528171457
88,636230434528276514
88,636230434528381606
88,636230434528486775
88,636230434528591952
88,636230434528696997
88,636230434528801888
88,636230434528906958
88,636230434529017041
88,636230434529127123
88,636230434529232211
88,636230434529337273
88,636230434529442523
88,636230434529547418
88,636230434529652497
88,636230434529752769
88,636230434529857656
88,636230434529962713
88,636230434530067968
88,636230434530173047
88,636230434530278121
88,636230434530383209
88,636230434530488083
88,636230434530593346
88,636230434530698249
88,636230434530803328
88,636230434530908578
88,636230434531013478
88,636230434531118540
88,636230434531223610
88,636230434531328693
88,636230434531433764
88,636230434531538851
88,636230434531643922
88,636230434531748984
88,636230434531854071
88,636230434531959150
88,636230434532064225
88,636230434532169295
88,636230434532269537
88,636230434532374612
88,636230434532479499
88,636230434532584762
88,636230434532689652
88,636230434532794727
88,636230434532899815
88,636230434533004872
88,636230434533110131
88,636230434533215043
88,636230434533320118
88,636230434533425193
88,636230434533530272
88,636230434533635338
88,636230434533740395
88,636230434533845487
88,636230434533955553
88,636230434534060640
88,636230434534165702
88,636230434534270961
88,636230434534375869
88,636230434534480939
88,636230434534586018
88,636230434534691071
88,636230434534796339
88,636230434534906408
88,636230434535016307
88,636230434535121566
88,636230434535226474
88,636230434535331527
88,636230434535436632
88,636230434535541689
88,636230434535646751
88,636230434535747010
88,636230434535851914
88,636230434535956989
88,636230434536062051
88,636230434536162306
88,636230434536267197
88,636230434536372468
88,636230434536477346
88,636230434536582617
88,636230434536687513
88,636230434536792754
88,636230434536897824
88,636230434537002715
88,636230434537112802
88,636230434537222885
88,636230434537328139
88,636230434537433034
88,636230434537538096
88,636230434537643188
88,636230434537748258
88,636230434537858341
88,636230434537963587
88,636230434538068713
88,636230434538173569
88,636230434538278644
88,636230434538383702
88,636230434538488960
88,636230434538593864
88,636230434538704113
88,636230434538814187
85,636230434538919078
85,636230434539024341
85,636230434539129416
85,636230434539234490
85,636230434539339398
85,636230434539444636
85,636230434539549531
85,636230434539654614
85,636230434539759689
85,636230434539864857
85,636230434539969842
85,636230434540070114
85,636230434540174988
85,636230434540280230
85,636230434540385121
85,636230434540490383
85,636230434540600457
85,636230434540705353
85,636230434540810611
85,636230434540915502
85,636230434541020590
85,636230434541125835
85,636230434541230739
85,636230434541335814
85,636230434541441059
85,636230434541545963
85,636230434541651213
85,636230434541756100
85,636230434541861179
85,636230434541971257
85,636230434542076332
85,636230434542181415
85,636230434542286669
85,636230434542396568
85,636230434542501647
85,636230434542606884
85,636230434542716779
85,636230434542821858
85,636230434542926945
85,636230434543032024
85,636230434543137261
85,636230434543242169
85,636230434543347244
85,636230434543452490
85,636230434543557393
85,636230434543662648
85,636230434543767714
85,636230434543872793
85,636230434543982687
85,636230434544087779
85,636230434544193016
85,636230434544298121
85,636230434544403200
85,636230434544508052
85,636230434544613136
85,636230434544713386
85,636230434544818294
85,636230434544923348
85,636230434545028611
85,636230434545133497
85,636230434545243597
85,636230434545348672
85,636230434545458917
85,636230434545563820
85,636230434545668899
85,636230434545774154
85,636230434545879027
85,636230434545984294
85,636230434546089365
85,636230434546194444
85,636230434546299514
85,636230434546404427
85,636230434546514483
85,636230434546619554
85,636230434546719813
85,636230434546824717
85,636230434546929963
85,636230434547035037
85,636230434547140121
85,636230434547245016
85,636230434547350078
85,636230434547450337
85,636230434547555245
85,636230434547660294
85,636230434547765553
85,636230434547870636
85,636230434547975706
85,636230434548080606
85,636230434548185676
85,636230434548290755
85,636230434548395843
85,636230434548501084
85,636230434548605971
85,636230434548711063
85,636230434548816133
85,636230434548921195
85,636230434549026274
85,636230434549131533
85,636230434549236423
85,636230434549346681
85,636230434549451756
85,636230434549556664
85,636230434549661739
85,636230434549766813
85,636230434549871871
85,636230434549977130
85,636230434550082016
85,636230434550187112
85,636230434550292354
85,636230434550397249
85,636230434550497500
85,636230434550602574
85,636230434550707465
85,636230434550812553
85,636230434550917615
85,636230434551022813
85,636230434551127781
85,636230434551232869
85,636230434551343067
85,636230434551448180
85,636230434551558087
85,636230434551663162
85,636230434551768249
85,636230434551873290
85,636230434551978561
87,636230434552083456
87,636230434552188707
87,636230434552293589
87,636230434552398685
87,636230434552508776
87,636230434552613829
87,636230434552718896
87,636230434552824154
87,636230434552929041
87,636230434553034137
87,636230434553139207
87,636230434553244453
87,636230434553349528
87,636230434553454602
87,636230434553559510
87,636230434553664589
87,636230434553769656
87,636230434553874897
87,636230434553979801
87,636230434554084880
87,636230434554190130
87,636230434554295196
87,636230434554400271
87,636230434554505170
87,636230434554615244
87,636230434554725322
87,636230434554830585
87,636230434554935677
87,636230434555040726
87,636230434555145805
87,636230434555250888
87,636230434555355766
87,636230434555460858
87,636230434555565920
87,636230434555676015
87,636230434555781077
87,636230434555886148
87,636230434555991218
87,636230434556096310
87,636230434556201385
87,636230434556306631
87,636230434556411534
87,636230434556516600
87,636230434556621688
87,636230434556726746
87,636230434556827009
87,636230434556931891
87,636230434557036988
87,636230434557142225
87,636230434557247120
87,636230434557352374
87,636230434557457269
87,636230434557562335
87,636230434557667598
87,636230434557772502
87,636230434557877577
87,636230434557982818
87,636230434558087893
87,636230434558197796
87,636230434558298055
87,636230434558402937
87,636230434558508008
88,636230434558613100
88,636230434558718170
88,636230434558823266
88,636230434558928495
88,636230434559033578
88,636230434559138644
88,636230434559243728
88,636230434559348794
88,636230434559458872
88,636230434559563784
88,636230434559664570
88,636230434559769662
88,636230434559879740
88,636230434559984802
88,636230434560089902
88,636230434560194960
88,636230434560300205
88,636230434560405096
88,636230434560510188
88,636230434560615241
88,636230434560720325
88,636230434560825588
88,636230434560930470
88,636230434561040732
88,636230434561145623
88,636230434561250899
88,636230434561355973
88,636230434561461052
88,636230434561565917
88,636230434561666181
88,636230434561771252
88,636230434561876322
88,636230434561986238
88,636230434562091300
88,636230434562196383
88,636230434562301445
88,636230434562401696
88,636230434562506591
88,636230434562616673
88,636230434562721752
88,636230434562831839
88,636230434562941922
88,636230434563051979
88,636230434563162236
88,636230434563267315
88,636230434563372394
88,636230434563477469
88,636230434563582356
88,636230434563687614
88,636230434563792518
88,636230434563897584
88,636230434564002838
88,636230434564112737
88,636230434564217812
88,636230434564322882
88,636230434564427970
88,636230434564533216
88,636230434564638102
90,636230434564743181
90,636230434564848264
90,636230434564953335
90,636230434565058410
90,636230434565163493
90,636230434565268559
90,636230434565373826
90,636230434565478704
90,636230434565583792
90,636230434565689038
90,636230434565793933
90,636230434565899016
90,636230434566004262
90,636230434566114165
90,636230434566219231
90,636230434566324323
90,636230434566434384
90,636230434566539471
90,636230434566644542
90,636230434566744784
90,636230434566849700
90,636230434566954767
90,636230434567064836
90,636230434567169924
90,636230434567275007
90,636230434567380244
90,636230434567485144
90,636230434567590214
90,636230434567695469
90,636230434567800535
90,636230434567905614
90,636230434568015521
90,636230434568120771
90,636230434568230683
90,636230434568335732
90,636230434568441003
90,636230434568546073
90,636230434568651144
90,636230434568756039
90,636230434568861293
90,636230434568971380
90,636230434569076455
90,636230434569186345
90,636230434569291411
90,636230434569396494
90,636230434569501573
90,636230434569606635
90,636230434569716726
90,636230434569821793
90,636230434569926867
90,636230434570031946
90,636230434570137017
90,636230434570242091
90,636230434570347166
90,636230434570452254
90,636230434570557495
90,636230434570662574
90,636230434570767461
90,636230434570872728
90,636230434570977610
90,636230434571082689
90,636230434571187952
90,636230434571293031
90,636230434571397935
90,636230434571502984
90,636230434571608084
90,636230434571713321
90,636230434571818212
90,636230434571923304
90,636230434572033378
90,636230434572138444
90,636230434572243532
90,636230434572348773
90,636230434572453848
90,636230434572558927
90,636230434572663826
90,636230434572768888
90,636230434572878979
90,636230434572984058
90,636230434573089129
90,636230434573199378
90,636230434573304453
90,636230434573409348
90,636230434573514440
90,636230434573619506
90,636230434573724572
90,636230434573829827
90,636230434573934837
90,636230434574039976
90,636230434574145051
90,636230434574249959
90,636230434574360020
90,636230434574470094
90,636230434574575190
90,636230434574680431
90,636230434574785339
90,636230434574895580
90,636230434575005492
90,636230434575110742
90,636230434575215624
90,636230434575325719
90,636230434575430965
90,636230434575536044
90,636230434575640952
90,636230434575746027
90,636230434575851076
90,636230434575956377
90,636230434576061247
90,636230434576171500
90,636230434576276592
90,636230434576381645
90,636230434576486558
90,636230434576596798
90,636230434576701698
90,636230434576806824
90,636230434576917018
90,636230434577022097
90,636230434577131991
90,636230434577237066
90,636230434577347328
90,636230434577452214
90,636230434577557293
93,636230434577667372
93,636230434577772446
93,636230434577877530
93,636230434577982617
93,636230434578087675
93,636230434578187926
93,636230434578297820
93,636230434578408104
93,636230434578512977
93,636230434578613249
93,636230434578718123
93,636230434578823377
93,636230434578928285
93,636230434579033527
93,636230434579138602
93,636230434579243672
93,636230434579348751
93,636230434579453676
93,636230434579563904
93,636230434579668791
93,636230434579773878
93,636230434579878957
93,636230434579984092
93,636230434580089094
93,636230434580194357
93,636230434580299248
93,636230434580409527
93,636230434580519605
93,636230434580624492
93,636230434580734745
93,636230434580839649
93,636230434580944707
93,636230434581049790
93,636230434581154856
93,636230434581260106
93,636230434581365185
93,636230434581470072
93,636230434581575339
93,636230434581680225
93,636230434581785484
93,636230434581890383
93,636230434581995467
93,636230434582100546
93,636230434582205783
93,636230434582315681
93,636230434582420765
93,636230434582530933
93,636230434582640904
93,636230434582746171
93,636230434582856245
93,636230434582961320
93,636230434583066390
93,636230434583171286
93,636230434583281377
93,636230434583386640
93,636230434583491706
93,636230434583596609
93,636230434583701680
94,636230434583806759
94,636230434583911834
94,636230434584016891
94,636230434584126965
94,636230434584237061
94,636230434584342118
94,636230434584447411
94,636230434584552285
94,636230434584657359
94,636230434584762417
94,636230434584872500
94,636230434584977583
94,636230434585082645
94,636230434585192911
94,636230434585297982
94,636230434585403052
94,636230434585512951
94,636230434585618025
94,636230434585723104
94,636230434585828363
94,636230434585933275
94,636230434586043332
94,636230434586143583
94,636230434586248491
94,636230434586353566
94,636230434586458807
94,636230434586563903
94,636230434586668786
94,636230434586774031
94,636230434586879115
94,636230434586983993
94,636230434587089089
94,636230434587199146
94,636230434587304254
94,636230434587409483
94,636230434587514374
94,636230434587624448
94,636230434587729719
94,636230434587834794
94,636230434587939860
94,636230434588049763
94,636230434588154834
94,636230434588260084
94,636230434588365163
94,636230434588470071
94,636230434588580341
94,636230434588685390
94,636230434588790298
94,636230434588895356
94,636230434589000619
94,636230434589105698
94,636230434589215592
94,636230434589315839
94,636230434589425729
94,636230434589530996
94,636230434589635895
94,636230434589741150
94,636230434589846220
95,636230434589951137
95,636230434590056365
95,636230434590161444
95,636230434590266339
95,636230434590376414
95,636230434590481693
95,636230434590586576
95,636230434590691638
95,636230434590801707
95,636230434590906799
95,636230434591011878
95,636230434591116932
95,636230434591222019
95,636230434591327269
95,636230434591432344
95,636230434591537419
95,636230434591642331
95,636230434591747397
95,636230434591852643
95,636230434591962721
95,636230434592067796
95,636230434592172691
95,636230434592277770
95,636230434592383020
95,636230434592487924
95,636230434592592985
95,636230434592703064
95,636230434592808357
95,636230434592913217
95,636230434593018292
95,636230434593128379
95,636230434593233454
95,636230434593333700
95,636230434593438582
95,636230434593543679
95,636230434593648924
95,636230434593753807
95,636230434593858903
95,636230434593963973
95,636230434594069223
95,636230434594174114
95,636230434594279202
95,636230434594384268
95,636230434594494338
95,636230434594599425
95,636230434594704671
95,636230434594809575
95,636230434594914641
95,636230434595019724
95,636230434595124970
95,636230434595230049
95,636230434595334935
95,636230434595445009
95,636230434595550272
95,636230434595655180
95,636230434595760422
95,636230434595865496
95,636230434595970404
95,636230434596075466
95,636230434596185553
95,636230434596290619
95,636230434596395690
95,636230434596500773
95,636230434596606031
95,636230434596715922
95,636230434596820988
95,636230434596926067
95,636230434597031325
95,636230434597136216
95,636230434597241479
95,636230434597346554
95,636230434597451440
95,636230434597556695
95,636230434597661774
95,636230434597766677
95,636230434597866920
95,636230434597971806
95,636230434598081923
95,636230434598186959
95,636230434598292055
95,636230434598392293
95,636230434598497197
95,636230434598602272
95,636230434598712341
95,636230434598817412
95,636230434598922486
95,636230434599027578
95,636230434599132632
95,636230434599237732
95,636230434599342781
95,636230434599448057
95,636230434599558122
95,636230434599663201
95,636230434599768101
95,636230434599873355
95,636230434599978233
95,636230434600083496
95,636230434600188571
95,636230434600293654
95,636230434600398549
95,636230434600503607
95,636230434600608874
95,636230434600713773
95,636230434600818852
95,636230434600924094
95,636230434601028989
95,636230434601134239
95,636230434601244133
95,636230434601354400
95,636230434601459479
95,636230434601564545
95,636230434601669628
95,636230434601774515
95,636230434601879606
95,636230434601984664
95,636230434602089764
95,636230434602194813
95,636230434602300072
95,636230434602409979
95,636230434602515045
95,636230434602620120
95,636230434602725250
95,636230434602830265
95,636230434602940352
95,636230434603045602
95,636230434603150506
95,636230434603255568
95,636230434603365659
95,636230434603470721
95,636230434603570972
95,636230434603675879
95,636230434603780941
95,636230434603891204
95,636230434603996278
95,636230434604101182
95,636230434604206261
95,636230434604311498
95,636230434604416397
95,636230434604521481
95,636230434604626731
95,636230434604731622
95,636230434604836705
95,636230434604946954
95,636230434605051858
95,636230434605156937
95,636230434605266994
95,636230434605372257
95,636230434605482147
95,636230434605587243
95,636230434605697304
95,636230434605802567
95,636230434605912470
95,636230434606017545
95,636230434606262710
95,636230434606367794
95,636230434606473044
95,636230434606577930
95,636230434606683129
95,636230434606788080
95,636230434606893159
95,636230434606998238
95,636230434607103501
95,636230434607208563
95,636230434607318470
95,636230434607423741
95,636230434607533606
95,636230434607643692
95,636230434607748947
95,636230434607859021
95,636230434607964104
95,636230434608074003
95,636230434608184256
95,636230434608289147
97,636230434608394226
97,636230434608499309
97,636230434608604376
97,636230434608714462
97,636230434608819524
97,636230434608924800
97,636230434609029695
97,636230434609134748
97,636230434609240011
97,636230434609344915
97,636230434609450157
97,636230434609560235
97,636230434609665318
97,636230434609770389
97,636230434609875292
97,636230434609980350
97,636230434610085442
97,636230434610190499
97,636230434610295758
97,636230434610400649
97,636230434610505920
97,636230434610615806
97,636230434610725893
97,636230434610830968
97,636230434610931214
97,636230434611036109
97,636230434611136351
97,636230434611241246
97,636230434611346338
97,636230434611451588
97,636230434611556475
97,636230434611661558
97,636230434611766808
97,636230434611876694
97,636230434611981773
97,636230434612087036
97,636230434612191940
97,636230434612297010
97,636230434612402072
97,636230434612507142
97,636230434612612405
97,636230434612717313
97,636230434612822388
97,636230434612927458
97,636230434613032525
97,636230434613137779
97,636230434613242674
97,636230434613347937
97,636230434613453003
97,636230434613558001
97,636230434613667985
97,636230434613773047
97,636230434613878310
97,636230434613983196
97,636230434614088271
97,636230434614193363
97,636230434614298438
97,636230434614403495
97,636230434614513569
97,636230434614618657
97,636230434614723740
97,636230434614828793
97,636230434614939064
97,636230434615044139
97,636230434615149034
97,636230434615254104
97,636230434615359175
97,636230434615464433
97,636230434615569328
97,636230434615674395
97,636230434615779474
97,636230434615884548
97,636230434615989623
97,636230434616094882
97,636230434616199956
97,636230434616304847
97,636230434616409939
97,636230434616520000
97,636230434616630083
97,636230434616735175
97,636230434616840228
97,636230434616945303
97,636230434617055394
97,636230434617160640
97,636230434617265714
97,636230434617370609
97,636230434617475701
97,636230434617580759
97,636230434617685846
97,636230434617791088
97,636230434617895987
97,636230434618001233
97,636230434618106316
97,636230434618211387
97,636230434618316295
97,636230434618421369
97,636230434618526427
97,636230434618631694
97,636230434618736576
97,636230434618841647
97,636230434618946726
97,636230434619051989
97,636230434619156888
97,636230434619261950
97,636230434619367038
97,636230434619477120
97,636230434619582178
97,636230434619687261
97,636230434619792515
97,636230434619897402
97,636230434620007497
97,636230434620112764
97,636230434620217634
97,636230434620322704
97,636230434620432967
97,636230434620537874
97,636230434620647948
97,636230434620758014
97,636230434620863101
97,636230434620968180
97,636230434621073418
97,636230434621178497
97,636230434621283576
97,636230434621393658
97,636230434621498541
97,636230434621603615
97,636230434621708690
97,636230434621813769
97,636230434621918844
97,636230434622023910
97,636230434622129173
94,636230434622234252
94,636230434622339322
94,636230434622444397
94,636230434622549301
94,636230434622654380
94,636230434622759621
94,636230434622864516
94,636230434622969770
94,636230434623074674
94,636230434623179732
94,636230434623284999
94,636230434623395069
94,636230434623500148
94,636230434623610222
94,636230434623720120
94,636230434623825379
94,636230434623930287
94,636230434624035524
94,636230434624140603
94,636230434624245708
94,636230434624350569
94,636230434624455656
94,636230434624560722
94,636230434624665789
94,636230434624771073
94,636230434624875955
94,636230434624981205
94,636230434625086104
94,636230434625191166
94,636230434625296425
94,636230434625401337
94,636230434625511411
94,636230434625621661
94,636230434625726556
94,636230434625831801
94,636230434625936722
94,636230434626036947
94,636230434626141855
94,636230434626246930
94,636230434626351996
94,636230434626457071
94,636230434626562154
94,636230434626672224
94,636230434626777478
94,636230434626882369
94,636230434626987448
94,636230434627092536
94,636230434627197662
94,636230434627307851
94,636230434627412768
94,636230434627517838
94,636230434627622891
94,636230434627728159
94,636230434627838237
94,636230434627948311
94,636230434628053232
94,636230434628158276
94,636230434628263351
94,636230434628368605
94,636230434628473706
94,636230434628578785
94,636230434628683654
94,636230434628793728
94,636230434628898799
94,636230434629008885
94,636230434629114140
94,636230434629219031
94,636230434629324122
94,636230434629429180
91,636230434629534276
91,636230434629639342
91,636230434629744588
91,636230434629849479
91,636230434629954738
91,636230434630059633
91,636230434630169711
91,636230434630274786
91,636230434630375036
91,636230434630479927
91,636230434630585015
91,636230434630690077
91,636230434630795335
91,636230434630900248
91,636230434631005314
91,636230434631115383
91,636230434631225453
91,636230434631330712
91,636230434631435786
91,636230434631545702
91,636230434631650944
91,636230434631755856
91,636230434631861089
91,636230434631966001
91,636230434632071247
91,636230434632176146
91,636230434632281217
91,636230434632386283
91,636230434632491542
91,636230434632596642
91,636230434632701695
91,636230434632806770
91,636230434632911669
