73,636230390059559777
73,636230390059729864
73,636230390059895174
73,636230390060060099
73,636230390060230220
73,636230390060395521
73,636230390060565471
73,636230390060730759
73,636230390060895877
73,636230390061065810
73,636230390061230949
73,636230390061396233
73,636230390061566354
73,636230390061731309
73,636230390061901412
73,636230390062066526
73,636230390062231823
73,636230390062401760
73,636230390062567065
73,636230390062732183
73,636230390062902299
73,636230390063067425
73,636230390063237358
73,636230390063402476
73,636230390063567777
73,636230390063737714
73,636230390063902849
73,636230390064067949
73,636230390064238083
73,636230390064403209
73,636230390064573308
73,636230390064738438
73,636230390064903543
73,636230390065073660
73,636230390065238970
73,636230390065404078
73,636230390065574037
73,636230390065739146
73,636230390065909263
73,636230390066074560
73,636230390066239493
73,636230390066409777
73,636230390066574967
73,636230390066739896
73,636230390066910017
73,636230390067075147
73,636230390067245260
73,636230390067410390
73,636230390067575507
73,636230390067745615
73,636230390067910733
73,636230390068080854
73,636230390068246172
73,636230390068411307
73,636230390068581205
73,636230390068746511
73,636230390068911457
73,636230390069081578
73,636230390069246696
73,636230390069416817
73,636230390069581934
73,636230390069747218
73,636230390069917160
73,636230390070082277
73,636230390070247574
73,636230390070417511
73,636230390070582842
73,636230390070752762
73,636230390070918055
73,636230390071083001
73,636230390071253105
73,636230390071418411
73,636230390071583524
73,636230390071753482
73,636230390071918579
73,636230390072088704
73,636230390072254009
73,636230390072419140
73,636230390072589055
73,636230390072754190
73,636230390072924298
73,636230390073089433
73,636230390073254725
73,636230390073424654
73,636230390073589771
73,636230390073755073
73,636230390073925035
73,636230390074090140
73,636230390074255257
73,636230390074425374
73,636230390074590491
73,636230390074760604
73,636230390074925935
73,636230390075090851
73,636230390075260955
73,636230390075426257
73,636230390075591207
73,636230390075761495
73,636230390075926446
73,636230390076096550
73,636230390076261855
73,636230390076426789
73,636230390076596905
73,636230390076762027
73,636230390076927328
73,636230390077097274
73,636230390077262562
73,636230390077432504
73,636230390077597801
73,636230390077762923
73,636230390077932864
73,636230390078098122
73,636230390078268111
73,636230390078433241
73,636230390078598329
73,636230390078768454
73,636230390078933580
73,636230390079098701
73,636230390079268827
73,636230390079434111
73,636230390079604048
73,636230390079769170
68,636230390079934462
68,636230390080104400
68,636230390080269705
68,636230390080434669
68,636230390080604944
68,636230390080769873
68,636230390080939994
68,636230390081105299
68,636230390081270383
68,636230390081440350
68,636230390081605471
68,636230390081770773
68,636230390081940727
68,636230390082105921
68,636230390082275948
68,636230390082441078
68,636230390082606238
68,636230390082776312
68,636230390082941434
68,636230390083106753
68,636230390083276655
68,636230390083441974
68,636230390083611898
68,636230390083777199
68,636230390083942129
68,636230390084112250
68,636230390084277555
68,636230390084447497
68,636230390084612618
68,636230390084777723
68,636230390084947865
68,636230390085112965
68,636230390085278083
68,636230390085448200
68,636230390085613505
68,636230390085778618
68,636230390085948560
68,636230390086113870
68,636230390086283794
68,636230390086449095
68,636230390086614046
68,636230390086784154
68,636230390086949284
68,636230390087114384
68,636230390087284694
68,636230390087449640
68,636230390087619744
68,636230390087784883
68,636230390087950167
68,636230390088120283
68,636230390088285221
68,636230390088450352
68,636230390088620648
68,636230390088785577
68,636230390088955694
68,636230390089120828
68,636230390089285950
68,636230390089456272
68,636230390089621188
68,636230390089791292
68,636230390089956423
68,636230390090121527
68,636230390090291644
68,636230390090456761
68,636230390090621883
68,636230390090792004
68,636230390090957301
68,636230390091127255
68,636230390091292539
68,636230390091457665
68,636230390091627594
68,636230390091792899
68,636230390091958013
68,636230390092127958
68,636230390092293076
68,636230390092458197
68,636230390092628489
68,636230390092793620
68,636230390092963574
68,636230390093128849
68,636230390093293783
68,636230390093464096
68,636230390093629205
68,636230390093799142
68,636230390093964273
68,636230390094129373
68,636230390094299588
68,636230390094464628
68,636230390094629913
68,636230390094799854
68,636230390094964971
68,636230390095135105
68,636230390095300214
68,636230390095465507
68,636230390095635444
68,636230390095800762
68,636230390095965692
68,636230390096135800
68,636230390096300938
68,636230390096471055
68,636230390096636168
68,636230390096801465
68,636230390096971398
68,636230390097136695
68,636230390097301817
68,636230390097471767
68,636230390097636871
68,636230390097806988
68,636230390097972294
68,636230390098137411
68,636230390098307344
68,636230390098472466
68,636230390098637596
68,636230390098807721
68,636230390098972838
68,636230390099142942
68,636230390099308068
68,636230390099473365
68,636230390099643302
68,636230390099808604
68,636230390099973743
68,636230390100143654
68,636230390100308771
68,636230390100478905
68,636230390100644189
68,636230390100809123
68,636230390100979248
68,636230390101144366
68,636230390101309483
68,636230390101479621
68,636230390101644730
68,636230390101814838
68,636230390101979956
68,636230390102145077
68,636230390102315378
68,636230390102480499
68,636230390102650437
68,636230390102815738
68,636230390102980855
68,636230390103150805
68,636230390103315927
68,636230390103481207
68,636230390103651161
68,636230390103816274
68,636230390103986387
68,636230390104151684
68,636230390104316822
68,636230390104486738
68,636230390104651873
68,636230390104816973
68,636230390104987107
68,636230390105152216
68,636230390105322349
68,636230390105487454
68,636230390105652576
68,636230390105822692
68,636230390105987994
68,636230390106152923
68,636230390106323228
68,636230390106488183
68,636230390106658299
68,636230390106823404
68,636230390106988539
68,636230390107158638
68,636230390107323760
68,636230390107488873
68,636230390107659011
68,636230390107824128
68,636230390107994245
68,636230390108159534
68,636230390108324489
68,636230390108494588
68,636230390108659919
68,636230390108824844
68,636230390108995132
68,636230390109160258
68,636230390109330182
68,636230390109495492
68,636230390109660601
68,636230390109830542
68,636230390109995694
68,636230390110160786
68,636230390110331082
68,636230390110496028
68,636230390110666137
68,636230390110831267
68,636230390110996555
68,636230390111166492
68,636230390111331794
68,636230390111496915
68,636230390111666844
68,636230390111832158
68,636230390112002087
68,636230390112167225
68,636230390112332321
68,636230390112502549
68,636230390112667573
68,636230390112832861
68,636230390113002978
68,636230390113168100
68,636230390113338037
68,636230390113503338
68,636230390113668455
68,636230390113838551
68,636230390114003689
68,636230390114168627
68,636230390114338753
68,636230390114503870
68,636230390114673982
68,636230390114839288
68,636230390115004239
68,636230390115174526
68,636230390115339639
68,636230390115504577
68,636230390115674882
68,636230390115839837
68,636230390116009937
68,636230390116175050
68,636230390116340167
68,636230390116510305
68,636230390116675423
68,636230390116840544
68,636230390117010644
68,636230390117175766
68,636230390117345887
68,636230390117511017
68,636230390117676134
68,636230390117846431
68,636230390118011364
68,636230390118181481
68,636230390118346598
68,636230390118511720
68,636230390118681841
68,636230390118846963
68,636230390119012260
68,636230390119182376
68,636230390119347323
68,636230390119517444
68,636230390119682548
68,636230390119847666
68,636230390120017782
68,636230390120183084
68,636230390120348201
68,636230390120518138
68,636230390120683260
68,636230390120853385
68,636230390121018503
68,636230390121183611
68,636230390121353732
68,636230390121518850
68,636230390121683967
68,636230390121854110
68,636230390122019223
68,636230390122189331
68,636230390122354461
68,636230390122519579
68,636230390122689682
68,636230390122854821
68,636230390123019917
68,636230390123190231
68,636230390123355181
68,636230390123525281
68,636230390123690398
68,636230390123855520
68,636230390124025803
68,636230390124190771
68,636230390124355884
68,636230390124525993
68,636230390124691127
68,636230390124861239
68,636230390125026532
68,636230390125191479
68,636230390125361771
68,636230390125526700
68,636230390125692010
68,636230390125861960
68,636230390126027240
68,636230390126197185
68,636230390126362478
68,636230390126527411
68,636230390126697554
68,636230390126862654
68,636230390127032775
68,636230390127197901
68,636230390127363198
68,636230390127533131
68,636230390127698458
68,636230390127863383
68,636230390128033671
68,636230390128198613
68,636230390128368729
68,636230390128533851
68,636230390128699140
68,636230390128869166
68,636230390129034203
68,636230390129199333
68,636230390129369450
68,636230390129534738
68,636230390129704688
68,636230390129869972
68,636230390130034910
68,636230390130205116
68,636230390130370161
68,636230390130535450
68,636230390130705387
68,636230390130870521
68,636230390131040625
68,636230390131205747
68,636230390131370873
68,636230390131540981
68,636230390131706287
68,636230390131871233
68,636230390132041521
68,636230390132206463
68,636230390132376575
68,636230390132541710
68,636230390132706819
68,636230390132876927
68,636230390133042237
68,636230390133207345
68,636230390133377295
68,636230390133542592
68,636230390133712529
68,636230390133877643
68,636230390134042965
68,636230390134212885
68,636230390134378182
68,636230390134543137
68,636230390134713250
68,636230390134878538
68,636230390135048475
68,636230390135213781
68,636230390135378894
68,636230390135548844
68,636230390135714132
68,636230390135884069
68,636230390136049183
68,636230390136214304
68,636230390136384425
68,636230390136549543
68,636230390136714673
68,636230390136884790
68,636230390137050082
68,636230390137220019
68,636230390137385137
68,636230390137550271
68,636230390137720375
68,636230390137885493
68,636230390138050606
68,636230390138220735
68,636230390138385848
68,636230390138555969
68,636230390138721271
68,636230390138886226
68,636230390139056509
68,636230390139221460
68,636230390139386560
68,636230390139556861
68,636230390139721828
68,636230390139891919
68,636230390140057037
68,636230390140222381
68,636230390140392275
68,636230390140557393
68,636230390140727509
68,636230390140892631
68,636230390141057941
68,636230390141227887
68,636230390141393166
68,636230390141558292
68,636230390141728221
68,636230390141893343
68,636230390142058469
68,636230390142228581
68,636230390142393908
68,636230390142563819
68,636230390142729116
68,636230390142894238
68,636230390143064175
68,636230390143229481
68,636230390143394590
68,636230390143564531
68,636230390143729648
68,636230390143899769
68,636230390144064900
68,636230390144230009
68,636230390144400125
68,636230390144565452
68,636230390144730377
68,636230390144900481
68,636230390145065787
68,636230390145235732
68,636230390145400858
68,636230390145566142
68,636230390145736092
68,636230390145901210
68,636230390146066327
68,636230390146236444
68,636230390146401557
68,636230390146571669
68,636230390146736971
68,636230390146902088
68,636230390147072021
68,636230390147237335
68,636230390147407259
68,636230390147572565
68,636230390147737511
68,636230390147907619
68,636230390148072745
68,636230390148237863
68,636230390148407971
68,636230390148573302
68,636230390148738206
68,636230390148908331
68,636230390149073568
68,636230390149243565
68,636230390149408700
68,636230390149573804
68,636230390149744062
68,636230390149909047
68,636230390150079176
68,636230390150244285
68,636230390150409420
68,636230390150579515
68,636230390150744842
68,636230390150909771
68,636230390151079884
68,636230390151245014
68,636230390151410123
68,636230390151580235
68,636230390151748385
68,636230390151915919
68,636230390152081686
68,636230390152249083
68,636230390152415094
68,636230390152583342
68,636230390152750324
68,636230390152915471
68,636230390153082175
68,636230390153249534
68,636230390153415964
68,636230390153585114
68,636230390153754038
68,636230390153919309
68,636230390154084418
68,636230390154251597
68,636230390154418112
68,636230390154585300
68,636230390154754916
68,636230390154921457
68,636230390155084556
68,636230390155256148
68,636230390155418944
68,636230390155586922
68,636230390155756658
68,636230390155923858
68,636230390156090306
68,636230390156257916
68,636230390156424308
68,636230390156590041
68,636230390156756301
68,636230390156923355
68,636230390157093083
68,636230390157258196
68,636230390157423318
68,636230390157593434
68,636230390157758556
68,636230390157923686
68,636230390158090048
68,636230390158260101
68,636230390158426895
68,636230390158592187
68,636230390158762142
68,636230390158927251
68,636230390159097136
68,636230390159262472
68,636230390159431477
68,636230390159597381
68,636230390159764303
68,636230390159931319
68,636230390160096603
68,636230390160261554
68,636230390160431838
68,636230390160596775
68,636230390160766892
68,636230390160932018
68,636230390161097131
68,636230390161267342
68,636230390161432378
68,636230390161597679
68,636230390161767621
68,636230390161932905
68,636230390162102842
68,636230390162268139
68,636230390162433094
68,636230390162603326
68,636230390162768337
68,636230390162933629
68,636230390163103738
68,636230390163268855
68,636230390163438792
68,636230390163604128
68,636230390163769211
68,636230390163939144
68,636230390164104453
68,636230390164269387
68,636230390164439688
68,636230390164604642
68,636230390164774742
68,636230390164939868
68,636230390165104990
68,636230390165275111
68,636230390165440215
68,636230390165605333
68,636230390165775454
68,636230390165940571
68,636230390166110692
68,636230390166275809
68,636230390166441115
68,636230390166611061
68,636230390166776358
68,636230390166946291
68,636230390167111412
68,636230390167276525
68,636230390167446638
68,636230390167611755
68,636230390167776890
68,636230390167947203
68,636230390168112124
68,636230390168282241
68,636230390168447538
68,636230390168612492
68,636230390168782592
68,636230390168947898
68,636230390169112840
68,636230390169282965
68,636230390169448091
68,636230390169618186
68,636230390169783304
68,636230390169948643
68,636230390170118572
68,636230390170283681
68,636230390170448790
68,636230390170619082
68,636230390170784165
68,636230390170954136
68,636230390171119267
68,636230390171284388
68,636230390171454578
68,636230390171619798
68,636230390171784731
68,636230390171955057
68,636230390172120149
68,636230390172290086
68,636230390172455392
68,636230390172620505
68,636230390172790442
68,636230390172955564
68,636230390173120694
68,636230390173290815
68,636230390173455928
68,636230390173626036
68,636230390173791154
68,636230390173956481
68,636230390174126585
68,636230390174291514
68,636230390174456627
68,636230390174626928
68,636230390174792049
68,636230390174961986
68,636230390175127108
68,636230390175292234
68,636230390175462342
68,636230390175627648
68,636230390175792774
68,636230390175962903
68,636230390176127820
68,636230390176297949
68,636230390176463071
68,636230390176628355
68,636230390176798288
68,636230390176963589
68,636230390177133531
68,636230390177298648
68,636230390177463774
68,636230390177633895
68,636230390177799183
68,636230390177964331
68,636230390178134255
68,636230390178299360
68,636230390178469493
68,636230390178634602
68,636230390178799899
68,636230390178969905
68,636230390179134954
68,636230390179300259
68,636230390179470376
68,636230390179635305
68,636230390179805435
68,636230390179970753
68,636230390180135665
68,636230390180305782
68,636230390180471088
68,636230390180636205
68,636230390180806142
68,636230390180971264
68,636230390181141381
68,636230390181306515
68,636230390181471611
68,636230390181641741
68,636230390181807038
68,636230390181972155
68,636230390182142092
68,636230390182307222
68,636230390182477331
68,636230390182642448
68,636230390182807565
68,636230390182977686
68,636230390183142988
68,636230390183307947
68,636230390183478226
68,636230390183643172
68,636230390183813289
68,636230390183978586
68,636230390184143528
68,636230390184313645
68,636230390184478762
68,636230390184643888
68,636230390184813992
68,636230390184979127
68,636230390185149248
68,636230390185314348
68,636230390185479465
68,636230390185649770
68,636230390185814892
68,636230390185979825
68,636230390186149955
68,636230390186315064
68,636230390186485181
68,636230390186650298
68,636230390186815428
68,636230390186985536
68,636230390187150654
68,636230390187320779
68,636230390187486072
68,636230390187651194
68,636230390187821131
68,636230390187986252
68,636230390188151374
68,636230390188321508
68,636230390188486608
68,636230390188656725
68,636230390188821842
68,636230390188986977
68,636230390189157081
68,636230390189322215
65,636230390189487333
65,636230390189657458
65,636230390189822554
65,636230390189992675
65,636230390190157797
65,636230390190323094
65,636230390190493031
65,636230390190658161
65,636230390190823283
65,636230390190993391
65,636230390191158504
65,636230390191328625
65,636230390191493755
65,636230390191659039
65,636230390191828981
65,636230390191994111
65,636230390192159220
65,636230390192329349
65,636230390192494642
65,636230390192664588
65,636230390192829902
65,636230390192994989
65,636230390193164931
65,636230390193330048
65,636230390193495161
65,636230390193665470
65,636230390193830417
65,636230390194000542
65,636230390194165651
65,636230390194330772
65,636230390194500876
65,636230390194665994
65,636230390194831299
65,636230390195001236
65,636230390195166367
65,636230390195336488
65,636230390195501592
65,636230390195666731
65,636230390195836831
65,636230390196001952
65,636230390196167065
65,636230390196337195
65,636230390196502488
65,636230390196672425
65,636230390196837538
65,636230390197002677
65,636230390197172836
65,636230390197338082
65,636230390197503015
65,636230390197673132
65,636230390197838280
65,636230390198008375
65,636230390198173505
65,636230390198338794
65,636230390198508739
65,636230390198673861
61,636230390198838978
61,636230390199009099
61,636230390199174217
61,636230390199344325
61,636230390199509635
61,636230390199674748
61,636230390199844676
61,636230390200009978
61,636230390200179919
61,636230390200345049
61,636230390200510338
61,636230390200680279
61,636230390200845405
61,636230390201010523
61,636230390201180644
61,636230390201345761
61,636230390201510870
61,636230390201681175
61,636230390201846108
61,636230390202016225
61,636230390202181355
61,636230390202346460
61,636230390202516581
61,636230390202681698
61,636230390202851832
61,636230390203017120
61,636230390203182071
61,636230390203352175
61,636230390203517309
61,636230390203687418
61,636230390203852544
61,636230390204017661
61,636230390204187782
61,636230390204353075
61,636230390204518017
61,636230390204688125
61,636230390204853422
61,636230390205018360
61,636230390205188481
61,636230390205353786
61,636230390205523758
61,636230390205688854
61,636230390205853950
61,636230390206024071
61,636230390206189205
61,636230390206354310
61,636230390206524615
61,636230390206689565
61,636230390206859669
61,636230390207024787
61,636230390207189917
61,636230390207360021
61,636230390207525142
61,636230390207690277
61,636230390207860376
61,636230390208025678
61,636230390208195619
61,636230390208360737
61,636230390208526042
61,636230390208695975
61,636230390208861092
61,636230390209026402
61,636230390209196348
61,636230390209361632
61,636230390209531573
61,636230390209696892
61,636230390209862009
61,636230390210031933
61,636230390210197055
61,636230390210367163
61,636230390210532294
61,636230390210697582
61,636230390210867519
61,636230390211032641
61,636230390211197763
61,636230390211368059
61,636230390211533181
61,636230390211698110
61,636230390211868427
61,636230390212033536
61,636230390212203469
61,636230390212368766
61,636230390212533717
61,636230390212704129
61,636230390212869276
61,636230390213034398
61,636230390213204514
61,636230390213369803
61,636230390213539744
61,636230390213705037
61,636230390213870154
61,636230390214040091
61,636230390214205393
61,636230390214370510
61,636230390214540452
61,636230390214705582
61,636230390214875690
61,636230390215040995
61,636230390215205925
61,636230390215376071
61,636230390215541159
61,636230390215706281
61,636230390215876414
61,636230390216041699
61,636230390216211636
61,636230390216376937
61,636230390216541875
61,636230390216712073
61,636230390216877267
61,636230390217047230
61,636230390217212535
62,636230390217377465
62,636230390217547590
62,636230390217712707
62,636230390217877838
62,636230390218047941
62,636230390218213256
62,636230390218378198
62,636230390218548490
62,636230390218713436
62,636230390218883540
62,636230390219048662
62,636230390219213788
62,636230390219383891
62,636230390219549009
62,636230390219719134
62,636230390219884260
62,636230390220049369
62,636230390220219490
62,636230390220384603
62,636230390220549969
62,636230390220719901
62,636230390220885203
62,636230390221055140
62,636230390221220253
62,636230390221385387
62,636230390221555496
62,636230390221720613
62,636230390221885726
62,636230390222056057
62,636230390222220969
62,636230390222391090
62,636230390222556391
62,636230390222721320
62,636230390222891441
62,636230390223056559
62,636230390223221693
62,636230390223391810
62,636230390223556919
62,636230390223727044
62,636230390223892170
62,636230390224057458
62,636230390224227391
62,636230390224392513
62,636230390224557648
62,636230390224727935
62,636230390224892882
62,636230390225063003
62,636230390225228291
62,636230390225393237
62,636230390225563363
62,636230390225728467
62,636230390225893589
62,636230390226063697
62,636230390226229028
63,636230390226398940
63,636230390226564241
63,636230390226729187
63,636230390226899291
63,636230390227064409
63,636230390227229543
63,636230390227399664
63,636230390227564978
63,636230390227734890
63,636230390227900011
63,636230390228065142
63,636230390228235374
63,636230390228400568
63,636230390228565664
63,636230390228735781
63,636230390228900723
63,636230390229070840
63,636230390229235974
63,636230390229401259
63,636230390229571358
63,636230390229736334
63,636230390229906438
63,636230390230071560
63,636230390230236677
63,636230390230406888
63,636230390230571903
63,636230390230737037
63,636230390230907188
63,636230390231072443
63,636230390231237569
63,636230390231407501
63,636230390231572615
63,636230390231742736
63,636230390231907866
63,636230390232072987
63,636230390232243100
63,636230390232408431
63,636230390232578334
63,636230390232743670
63,636230390232908582
63,636230390233078686
63,636230390233243812
63,636230390233409109
63,636230390233579046
63,636230390233744180
63,636230390233914280
63,636230390234079585
63,636230390234244532
63,636230390234414636
63,636230390234579757
63,636230390234744887
63,636230390234915013
63,636230390235080109
63,636230390235250234
64,636230390235415531
64,636230390235580469
64,636230390235750607
64,636230390235915891
64,636230390236081013
64,636230390236250941
64,636230390236416063
64,636230390236586184
64,636230390236751314
64,636230390236916607
64,636230390237086536
64,636230390237251837
64,636230390237416954
64,636230390237586913
64,636230390237752197
64,636230390237922134
64,636230390238087269
64,636230390238252373
64,636230390238422494
64,636230390238587624
64,636230390238757728
64,636230390238923051
64,636230390239087976
64,636230390239258084
64,636230390239423201
64,636230390239588332
64,636230390239758448
64,636230390239923557
64,636230390240093678
64,636230390240258800
64,636230390240423917
64,636230390240594034
64,636230390240759357
64,636230390240924483
64,636230390241094386
64,636230390241259687
64,636230390241429628
64,636230390241594930
64,636230390241759863
64,636230390241929984
64,636230390242095097
64,636230390242260232
64,636230390242430340
64,636230390242595474
64,636230390242765578
64,636230390242930918
64,636230390243096006
64,636230390243265930
64,636230390243431047
64,636230390243596357
64,636230390243766286
64,636230390243931420
64,636230390244096542
64,636230390244266830
64,636230390244431780
64,636230390244601880
64,636230390244767185
64,636230390244932333
64,636230390245102236
64,636230390245267537
64,636230390245437478
64,636230390245602609
64,636230390245767709
64,636230390245937830
64,636230390246102969
64,636230390246268069
64,636230390246438186
64,636230390246603324
64,636230390246773433
64,636230390246938725
64,636230390247103877
64,636230390247273780
64,636230390247438919
64,636230390247604019
64,636230390247774320
64,636230390247939437
64,636230390248109378
64,636230390248274680
64,636230390248439630
64,636230390248609734
64,636230390248774864
64,636230390248939965
64,636230390249110299
64,636230390249275207
64,636230390249445341
64,636230390249610467
64,636230390249775563
64,636230390249945680
64,636230390250110797
64,636230390250276099
64,636230390250446040
64,636230390250611341
64,636230390250781278
64,636230390250946400
64,636230390251111697
64,636230390251281647
64,636230390251446961
64,636230390251612074
64,636230390251781990
64,636230390251947124
64,636230390252117224
64,636230390252282534
64,636230390252447651
64,636230390252617772
64,636230390252782719
64,636230390252947832
64,636230390253117949
64,636230390253283057
64,636230390253453178
64,636230390253618480
64,636230390253783409
64,636230390253953534
64,636230390254118831
64,636230390254283949
64,636230390254453907
64,636230390254619024
64,636230390254789175
64,636230390254954250
64,636230390255119389
64,636230390255289664
64,636230390255454602
64,636230390255624723
64,636230390255790032
64,636230390255955137
64,636230390256125147
64,636230390256290209
64,636230390256455313
64,636230390256625618
64,636230390256790552
64,636230390256960698
64,636230390257125807
64,636230390257290929
64,636230390257461028
64,636230390257626146
64,636230390257791280
64,636230390257961594
64,636230390258126497
64,636230390258296635
64,636230390258461740
64,636230390258627041
64,636230390258796974
64,636230390258962288
64,636230390259127217
64,636230390259297518
64,636230390259462447
64,636230390259632585
64,636230390259797895
64,636230390259962820
64,636230390260132924
64,636230390260298059
64,636230390260463159
64,636230390260633468
64,636230390260798586
64,636230390260968523
66,636230390261133640
66,636230390261298762
66,636230390261468874
66,636230390261634175
66,636230390261799297
66,636230390261969435
66,636230390262134347
66,636230390262304473
66,636230390262469774
66,636230390262634896
66,636230390262804824
66,636230390262970130
66,636230390263135247
66,636230390263305197
66,636230390263470490
66,636230390263640418
66,636230390263805553
66,636230390263970871
66,636230390264140787
66,636230390264306080
66,636230390264471013
66,636230390264641318
66,636230390264806431
66,636230390264976373
66,636230390265141682
66,636230390265306603
66,636230390265476724
66,636230390265641859
66,636230390265806963
66,636230390265977084
66,636230390266142214
66,636230390266312318
66,636230390266477624
66,636230390266642575
66,636230390266812696
66,636230390266977796
66,636230390267142926
66,636230390267313214
66,636230390267478327
66,636230390267648273
66,636230390267813570
66,636230390267978503
66,636230390268148812
66,636230390268313930
66,636230390268478876
66,636230390268649172
66,636230390268814286
66,636230390268984223
66,636230390269149340
66,636230390269314475
66,636230390269484591
66,636230390269649875
66,636230390269819817
66,636230390269984947
67,636230390270150056
67,636230390270320168
67,636230390270485303
67,636230390270650407
67,636230390270820717
67,636230390270985659
67,636230390271155780
67,636230390271320884
67,636230390271486015
67,636230390271656144
67,636230390271821257
67,636230390271986362
67,636230390272156478
67,636230390272321776
67,636230390272491713
67,636230390272657018
67,636230390272821965
67,636230390272992073
67,636230390273157280
67,636230390273327311
67,636230390273492424
67,636230390273657730
67,636230390273827667
67,636230390273992793
67,636230390274157940
67,636230390274328023
67,636230390274493149
67,636230390274658270
67,636230390274828374
67,636230390274993496
67,636230390275163617
67,636230390275328756
67,636230390275493865
67,636230390275663973
67,636230390275829090
67,636230390275994203
67,636230390276164346
67,636230390276329463
67,636230390276499563
67,636230390276664898
67,636230390276829990
67,636230390277000111
67,636230390277165220
67,636230390277330158
67,636230390277500475
67,636230390277665576
67,636230390277835513
67,636230390278000818
67,636230390278165940
67,636230390278336057
67,636230390278500990
67,636230390278671115
68,636230390278836412
68,636230390279001359
68,636230390279171463
68,636230390279336764
68,636230390279501881
68,636230390279671836
68,636230390279837124
68,636230390280007061
68,636230390280172179
68,636230390280337309
68,636230390280507438
68,636230390280672722
68,636230390280837647
68,636230390281007790
68,636230390281172907
68,636230390281343011
68,636230390281508141
68,636230390281673242
68,636230390281843435
68,636230390282008497
68,636230390282173602
68,636230390282343740
68,636230390282508844
68,636230390282678978
68,636230390282844262
68,636230390283009209
68,636230390283179317
68,636230390283344618
68,636230390283509565
68,636230390283679673
68,636230390283844790
68,636230390284014928
68,636230390284180024
68,636230390284345326
68,636230390284515263
68,636230390284680389
68,636230390284845502
68,636230390285015618
68,636230390285180740
68,636230390285350861
68,636230390285516162
68,636230390285681143
68,636230390285851213
68,636230390286016330
68,636230390286181452
68,636230390286351573
68,636230390286516870
68,636230390286686807
68,636230390286851937
68,636230390287017046
68,636230390287187184
68,636230390287352284
68,636230390287517402
67,636230390287687536
67,636230390287852657
67,636230390288022761
67,636230390288187874
67,636230390288353176
67,636230390288523117
67,636230390288688239
67,636230390288858355
67,636230390289023490
67,636230390289188607
67,636230390289358707
67,636230390289523824
67,636230390289688959
67,636230390289859084
67,636230390290024180
67,636230390290194305
67,636230390290359607
67,636230390290524724
67,636230390290694670
67,636230390290859783
67,636230390291024896
67,636230390291195197
67,636230390291360318
67,636230390291530264
67,636230390291695552
67,636230390291860674
67,636230390292030710
67,636230390292195724
67,636230390292361034
67,636230390292530980
67,636230390292696084
67,636230390292866201
67,636230390293031323
67,636230390293196453
67,636230390293366557
67,636230390293531674
67,636230390293696980
67,636230390293867101
67,636230390294032218
67,636230390294202164
67,636230390294367273
67,636230390294532583
67,636230390294702507
67,636230390294867646
67,636230390295032742
67,636230390295203055
67,636230390295368168
67,636230390295538105
67,636230390295703437
67,636230390295868349
67,636230390296038457
67,636230390296203758
67,636230390296368696
67,636230390296538997
67,636230390296704123
67,636230390296874055
67,636230390297039352
67,636230390297204478
67,636230390297374407
67,636230390297539554
67,636230390297709650
67,636230390297874767
67,636230390298039897
67,636230390298210005
67,636230390298375119
67,636230390298540257
67,636230390298710391
67,636230390298875658
67,636230390299040596
67,636230390299210717
67,636230390299375834
67,636230390299545964
67,636230390299711073
67,636230390299876195
67,636230390300046508
67,636230390300211433
67,636230390300376563
67,636230390300546684
67,636230390300711968
67,636230390300881905
67,636230390301047040
67,636230390301212140
67,636230390301382261
67,636230390301547413
67,636230390301717500
67,636230390301882613
67,636230390302047743
67,636230390302217855
67,636230390302382994
67,636230390302548274
67,636230390302718228
67,636230390302883513
67,636230390303048626
67,636230390303218563
67,636230390303383702
67,636230390303553801
67,636230390303718923
67,636230390303884045
67,636230390304054371
67,636230390304219292
67,636230390304389400
67,636230390304554705
67,636230390304719634
67,636230390304889755
67,636230390305054894
67,636230390305220174
67,636230390305390124
67,636230390305555242
67,636230390305725350
67,636230390305890480
67,636230390306055602
67,636230390306225701
67,636230390306390823
67,636230390306556154
67,636230390306726074
67,636230390306891192
67,636230390307061300
67,636230390307226434
67,636230390307391547
67,636230390307561655
67,636230390307726773
67,636230390307891903
67,636230390308062028
67,636230390308227214
67,636230390308397250
67,636230390308562551
67,636230390308727664
67,636230390308897605
67,636230390309062924
67,636230390309227853
67,636230390309398141
67,636230390309563087
67,636230390309733200
67,636230390309898330
67,636230390310063443
67,636230390310233667
67,636230390310398878
67,636230390310563996
67,636230390310733920
67,636230390310899050
67,636230390311069150
67,636230390311234280
67,636230390311399393
67,636230390311569501
67,636230390311734803
67,636230390311899920
67,636230390312069866
67,636230390312234979
67,636230390312405100
67,636230390312570230
67,636230390312735335
67,636230390312905639
67,636230390313070581
67,636230390313240694
67,636230390313405991
67,636230390313570942
67,636230390313741045
67,636230390313906351
67,636230390314071297
67,636230390314241418
67,636230390314406732
67,636230390314571640
67,636230390314741761
67,636230390314906887
67,636230390315076995
67,636230390315242113
67,636230390315407235
67,636230390315577373
67,636230390315742657
67,636230390315912594
67,636230390316077724
67,636230390316243013
67,636230390316412945
67,636230390316578067
67,636230390316743390
67,636230390316913515
67,636230390317078419
67,636230390317248544
67,636230390317413678
67,636230390317578839
67,636230390317748900
67,636230390317914034
67,636230390318079135
67,636230390318249260
67,636230390318414386
67,636230390318584511
67,636230390318749817
67,636230390318914746
67,636230390319084845
67,636230390319250151
67,636230390319415264
67,636230390319585218
67,636230390319750336
67,636230390319920444
67,636230390320085578
67,636230390320250683
67,636230390320420804
67,636230390320585930
67,636230390320751236
67,636230390320921361
67,636230390321086269
67,636230390321256394
67,636230390321421524
67,636230390321586646
67,636230390321756745
67,636230390321921880
67,636230390322087006
67,636230390322257106
67,636230390322422227
67,636230390322592348
67,636230390322757461
67,636230390322922784
67,636230390323092884
67,636230390323257813
67,636230390323422960
67,636230390323593068
67,636230390323758353
67,636230390323928294
67,636230390324093424
67,636230390324258713
67,636230390324428834
67,636230390324593780
67,636230390324763888
67,636230390324929219
67,636230390325094123
67,636230390325264240
67,636230390325429541
67,636230390325594663
67,636230390325764779
67,636230390325929730
67,636230390326099838
67,636230390326265140
67,636230390326430261
67,636230390326600232
67,636230390326765324
67,636230390326930651
67,636230390327100759
67,636230390327265672
67,636230390327435792
67,636230390327600906
67,636230390327766036
67,636230390327936238
67,636230390328101274
67,636230390328266558
67,636230390328436525
67,636230390328601617
67,636230390328771742
67,636230390328936851
67,636230390329101973
67,636230390329272094
67,636230390329437395
67,636230390329602513
67,636230390329772634
67,636230390329937764
67,636230390330107688
67,636230390330272810
67,636230390330438103
67,636230390330608040
67,636230390330773161
67,636230390330938287
67,636230390331108584
67,636230390331273697
67,636230390331443638
67,636230390331608760
67,636230390331773873
67,636230390331943994
67,636230390332109111
67,636230390332274229
67,636230390332444371
67,636230390332609467
67,636230390332779597
67,636230390332944714
67,636230390333109827
67,636230390333279940
67,636230390333445061
67,636230390333610183
67,636230390333780317
67,636230390333945417
67,636230390334115538
67,636230390334280703
67,636230390334445953
67,636230390334615915
67,636230390334781011
67,636230390334946146
67,636230390335116447
67,636230390335281380
67,636230390335451488
67,636230390335616790
67,636230390335781723
67,636230390335951925
67,636230390336116961
67,636230390336287082
67,636230390336452388
67,636230390336617334
67,636230390336787438
67,636230390336952569
67,636230390337117857
67,636230390337287811
67,636230390337452924
67,636230390337623032
67,636230390337788334
67,636230390337953289
67,636230390338123388
67,636230390338288540
67,636230390338453623
67,636230390338623740
67,636230390338788874
67,636230390338959004
67,636230390339124126
67,636230390339289230
67,636230390339459338
67,636230390339624477
67,636230390339789586
67,636230390339959908
67,636230390340125025
67,636230390340294932
67,636230390340460230
67,636230390340625351
67,636230390340795284
67,636230390340960585
67,636230390341125707
67,636230390341295648
67,636230390341460762
67,636230390341630900
67,636230390341796017
67,636230390341961139
67,636230390342131238
67,636230390342296356
67,636230390342461490
67,636230390342631774
67,636230390342796712
67,636230390342966828
67,636230390343131950
67,636230390343297251
67,636230390343467201
67,636230390343632511
67,636230390343797440
67,636230390343967561
67,636230390344132871
67,636230390344302783
67,636230390344467998
67,636230390344633034
67,636230390344803155
67,636230390344968251
67,636230390345133386
67,636230390345303678
67,636230390345468791
67,636230390345638733
67,636230390345803850
67,636230390345968967
67,636230390346139165
67,636230390346304210
67,636230390346469353
67,636230390346639444
67,636230390346804745
67,636230390346974683
67,636230390347139988
67,636230390347305101
67,636230390347475167
67,636230390347640190
67,636230390347805299
67,636230390347975407
67,636230390348140700
67,636230390348310633
67,636230390348475763
67,636230390348640867
67,636230390349026146
67,636230390349036161
67,636230390349146231
67,636230390349311357
67,636230390349476663
67,636230390349646664
67,636230390349811884
67,636230390349977001
67,636230390350146964
67,636230390350312073
67,636230390350482177
67,636230390350647316
67,636230390350812412
67,636230390350982533
67,636230390351147650
67,636230390351312789
67,636230390351482905
67,636230390351648023
67,636230390351818127
67,636230390351983283
67,636230390352148370
67,636230390352318483
67,636230390352483617
67,636230390352648940
67,636230390352819022
67,636230390352983956
67,636230390353154077
67,636230390353319194
67,636230390353484329
67,636230390353654454
67,636230390353819550
67,636230390353984667
67,636230390354154793
67,636230390354320094
67,636230390354490027
67,636230390354655161
67,636230390354820262
67,636230390354990378
67,636230390355155500
67,636230390355320810
67,636230390355490738
67,636230390355656048
67,636230390355825977
67,636230390355991111
67,636230390356156246
67,636230390356326516
67,636230390356491459
67,636230390356656572
67,636230390356826688
67,636230390356991990
67,636230390357161927
67,636230390357327232
67,636230390357492350
67,636230390357662424
67,636230390357827396
67,636230390357997521
67,636230390358162818
67,636230390358327803
67,636230390358497877
67,636230390358662994
67,636230390358828112
67,636230390358998425
67,636230390359163530
67,636230390359328485
67,636230390359498777
67,636230390359663723
67,636230390359833827
67,636230390359998940
67,636230390360164079
67,636230390360334187
67,636230390360499480
67,636230390360664422
67,636230390360834560
67,636230390360999669
67,636230390361169773
67,636230390361334920
67,636230390361500196
67,636230390361670150
67,636230390361835267
67,636230390362005371
67,636230390362170672
67,636230390362335614
67,636230390362505723
67,636230390362670844
67,636230390362835962
67,636230390363006083
67,636230390363171388
67,636230390363341321
67,636230390363506622
67,636230390363671573
67,636230390363841681
67,636230390364006982
67,636230390364171924
67,636230390364342217
67,636230390364507171
67,636230390364677271
67,636230390364842410
67,636230390365007690
67,636230390365177623
67,636230390365342744
67,636230390365507866
67,636230390365678162
67,636230390365843284
67,636230390366013221
67,636230390366178518
67,636230390366343640
67,636230390366513577
67,636230390366678720
67,636230390366843812
67,636230390367014112
67,636230390367179059
67,636230390367349171
67,636230390367514293
67,636230390367679423
67,636230390367849523
67,636230390368014661
67,636230390368179775
67,636230390368350067
67,636230390368515017
67,636230390368685121
67,636230390368850427
67,636230390369015356
67,636230390369185494
67,636230390369350782
67,636230390369520715
67,636230390369685850
67,636230390369850950
67,636230390370021067
67,636230390370186188
67,636230390370351490
67,636230390370521615
67,636230390370686544
67,636230390370856665
67,636230390371021787
67,636230390371186904
67,636230390371357021
67,636230390371522156
67,636230390371687260
67,636230390371857394
67,636230390372022507
67,636230390372192615
67,636230390372357912
67,636230390372523034
67,636230390372692971
67,636230390372858268
67,636230390373023227
67,636230390373193331
67,636230390373358628
67,636230390373523562
67,636230390373693862
67,636230390373858984
67,636230390374028934
67,636230390374194227
67,636230390374359340
67,636230390374529294
67,636230390374694578
67,636230390374864532
67,636230390375029825
67,636230390375194754
67,636230390375364867
67,636230390375530172
67,636230390375695119
67,636230390375865248
67,636230390376030340
67,636230390376200465
67,636230390376365583
67,636230390376530722
67,636230390376700821
67,636230390376865939
67,636230390377031056
67,636230390377201198
67,636230390377366483
67,636230390377536415
67,636230390377701550
67,636230390377866855
67,636230390378036771
67,636230390378201901
67,636230390378367186
67,636230390378537135
67,636230390378702257
67,636230390378872378
67,636230390379037483
67,636230390379202617
67,636230390379372717
67,636230390379537834
67,636230390379702956
67,636230390379873077
67,636230390380038190
67,636230390380208315
67,636230390380373441
67,636230390380538755
67,636230390380708667
67,636230390380873806
67,636230390381038927
67,636230390381209027
67,636230390381374144
67,636230390381544270
67,636230390381709417
67,636230390381879504
67,636230390382044681
67,636230390382209739
67,636230390382374860
67,636230390382545157
67,636230390382710107
67,636230390382880211
67,636230390383045333
67,636230390383210634
67,636230390383380567
67,636230390383545706
67,636230390383710836
67,636230390383880944
67,636230390384046057
67,636230390384216165
67,636230390384381287
67,636230390384546417
67,636230390384716521
67,636230390384881639
67,636230390385051760
67,636230390385216890
67,636230390385382011
67,636230390385552115
67,636230390385717340
67,636230390385882363
67,636230390386052471
67,636230390386217794
67,636230390386387710
67,636230390386553007
67,636230390386718124
67,636230390386888065
67,636230390387053196
67,636230390387218313
67,636230390387388447
67,636230390387553727
67,636230390387723668
67,636230390387888794
67,636230390388053899
67,636230390388224015
67,636230390388389150
67,636230390388554434
67,636230390388724388
67,636230390388889489
67,636230390389059622
67,636230390389224907
67,636230390389389862
67,636230390389559961
67,636230390389725083
67,636230390389890200
67,636230390390060325
67,636230390390225443
67,636230390390395560
67,636230390390560690
67,636230390390725974
67,636230390390895941
67,636230390391061217
67,636230390391226334
67,636230390391396271
67,636230390391561577
67,636230390391731505
67,636230390391896644
67,636230390392061744
67,636230390392231861
67,636230390392396983
67,636230390392562323
67,636230390392732221
67,636230390392897356
67,636230390393067460
67,636230390393232594
67,636230390393397703
67,636230390393567944
67,636230390393733117
67,636230390393898067
67,636230390394068359
67,636230390394233477
67,636230390394403422
67,636230390394568711
67,636230390394733850
67,636230390394903941
67,636230390395069062
67,636230390395234022
67,636230390395404305
67,636230390395569423
67,636230390395739360
67,636230390395904661
67,636230390396069599
67,636230390396239737
67,636230390396404833
67,636230390396569976
67,636230390396740093
67,636230390396905189
67,636230390397075305
67,636230390397240440
67,636230390397405540
67,636230390397575665
67,636230390397740787
67,636230390397910917
67,636230390398076038
67,636230390398241156
67,636230390398411260
67,636230390398576390
67,636230390398741507
67,636230390398911633
67,636230390399076746
67,636230390399246854
67,636230390399412151
67,636230390399577273
67,636230390399747210
67,636230390399912520
67,636230390400077444
67,636230390400247578
67,636230390400412691
67,636230390400582804
67,636230390400747947
67,636230390400913039
67,636230390401083160
67,636230390401248482
67,636230390401413394
67,636230390401583695
67,636230390401748834
67,636230390401918754
67,636230390402083867
67,636230390402249181
67,636230390402419105
67,636230390402584227
67,636230390402749340
67,636230390402919474
67,636230390403084596
67,636230390403254704
67,636230390403420001
67,636230390403584956
67,636230390403755064
67,636230390403920177
67,636230390404085307
67,636230390404255599
67,636230390404420533
67,636230390404590654
67,636230390404755771
67,636230390404921068
67,636230390405091010
67,636230390405256311
67,636230390405421262
67,636230390405591378
67,636230390405756667
67,636230390405926694
67,636230390406091721
67,636230390406257027
67,636230390406427144
67,636230390406592261
67,636230390406757212
67,636230390406927499
67,636230390407092446
67,636230390407262554
67,636230390407427671
67,636230390407592797
67,636230390407762905
67,636230390407928049
67,636230390408093149
67,636230390408263266
67,636230390408428379
67,636230390408598500
67,636230390408763621
67,636230390408928739
67,636230390409098860
67,636230390409263986
67,636230390409429099
67,636230390409599220
67,636230390409764346
67,636230390409934454
67,636230390410099593
67,636230390410264706
67,636230390410434814
67,636230390410599927
67,636230390410770048
67,636230390410935358
67,636230390411100296
67,636230390411270400
68,636230390411435534
68,636230390411600639
68,636230390411770768
68,636230390411935890
68,636230390412105998
68,636230390412271111
68,636230390412436233
68,636230390412606538
68,636230390412771664
68,636230390412936602
68,636230390413106710
68,636230390413271831
68,636230390413441948
68,636230390413607078
68,636230390413772363
68,636230390413942300
68,636230390414107417
68,636230390414277542
68,636230390414442848
68,636230390414607957
68,636230390414777898
68,636230390414943024
68,636230390415108317
68,636230390415278254
68,636230390415443551
68,636230390415608681
68,636230390415778789
68,636230390415943723
68,636230390416113857
68,636230390416279149
68,636230390416444096
68,636230390416614200
68,636230390416779501
68,636230390416944460
68,636230390417114744
68,636230390417279707
68,636230390417449824
68,636230390417615121
68,636230390417780046
68,636230390417950150
68,636230390418115271
68,636230390418280389
68,636230390418450523
68,636230390418615627
68,636230390418785748
68,636230390418950866
68,636230390419115983
68,636230390419286104
68,636230390419451226
68,636230390419616339
68,636230390419786460
68,636230390419951577
68,636230390420121698
68,636230390420286816
68,636230390420451933
68,636230390420622054
68,636230390420787176
68,636230390420957292
68,636230390421122418
68,636230390421287531
68,636230390421457648
68,636230390421622766
68,636230390421787883
68,636230390421958008
68,636230390422123130
68,636230390422293247
68,636230390422458381
68,636230390422623477
68,636230390422793598
68,636230390422958716
68,636230390423123833
68,636230390423293954
68,636230390423459071
68,636230390423629197
68,636230390423794310
68,636230390423959427
68,636230390424129552
68,636230390424294678
68,636230390424459796
68,636230390424629904
68,636230390424795021
68,636230390424965142
68,636230390425130260
68,636230390425295382
68,636230390425465498
68,636230390425630616
68,636230390425795729
68,636230390425965854
68,636230390426130971
68,636230390426301092
68,636230390426466214
68,636230390426631327
68,636230390426801448
68,636230390426966574
68,636230390427131683
68,636230390427301804
68,636230390427466926
68,636230390427637038
68,636230390427802164
68,636230390427967277
68,636230390428137398
68,636230390428302520
68,636230390428472637
68,636230390428637758
68,636230390428802884
68,636230390428972997
68,636230390429138114
68,636230390429303227
68,636230390429473348
68,636230390429638470
68,636230390429803583
68,636230390429973708
68,636230390430138821
68,636230390430308942
68,636230390430474060
68,636230390430639177
68,636230390430809298
68,636230390430974416
68,636230390431139537
68,636230390431309654
68,636230390431474767
68,636230390431644892
68,636230390431810027
68,636230390431975136
68,636230390432145248
68,636230390432310366
68,636230390432475492
68,636230390432645613
68,636230390432810734
68,636230390432980842
68,636230390433145964
68,636230390433311077
68,636230390433481203
68,636230390433646316
68,636230390433811433
68,636230390433981554
68,636230390434146671
68,636230390434316788
68,636230390434481918
68,636230390434647027
68,636230390434817165
68,636230390434982283
68,636230390435152387
68,636230390435317508
68,636230390435482617
68,636230390435652747
68,636230390435817860
68,636230390435982986
68,636230390436153098
68,636230390436318400
68,636230390436488337
68,636230390436653467
68,636230390436818584
68,636230390436988697
68,636230390437153810
68,636230390437319111
68,636230390437489232
68,636230390437654174
68,636230390437824287
68,636230390437989404
68,636230390438154517
68,636230390438324719
68,636230390438489777
68,636230390438654877
68,636230390438825186
68,636230390438990129
68,636230390439160241
68,636230390439325358
68,636230390439490489
68,636230390439660738
68,636230390439825718
68,636230390439990827
68,636230390440160961
68,636230390440326250
68,636230390440496187
68,636230390440661304
68,636230390440826434
68,636230390440996547
68,636230390441161660
68,636230390441326803
68,636230390441497082
68,636230390441662200
68,636230390441832141
68,636230390441997271
68,636230390442162367
68,636230390442332676
68,636230390442497802
68,636230390442662744
68,636230390442833028
68,636230390442997974
68,636230390443168082
68,636230390443333221
68,636230390443498322
68,636230390443668631
68,636230390443833564
68,636230390444003681
68,636230390444168811
68,636230390444334095
68,636230390444504032
68,636230390444669334
68,636230390444834451
68,636230390445004576
68,636230390445169514
68,636230390445339631
68,636230390445504761
68,636230390445669879
68,636230390445840017
68,636230390446005126
68,636230390446170405
68,636230390446340364
68,636230390446505477
68,636230390446675581
68,636230390446840715
68,636230390447005829
68,636230390447175932
68,636230390447341067
68,636230390447506355
68,636230390447676301
68,636230390447841598
68,636230390448011531
68,636230390448176648
68,636230390448341766
68,636230390448511882
68,636230390448677192
68,636230390448842310
68,636230390449012243
68,636230390449177360
68,636230390449347481
68,636230390449512778
68,636230390449677712
68,636230390449847832
68,636230390450012958
68,636230390450178072
67,636230390450348197
67,636230390450513310
67,636230390450683431
67,636230390450848557
67,636230390451013679
67,636230390451183787
67,636230390451348908
67,636230390451514022
67,636230390451684151
67,636230390451849264
67,636230390452019381
67,636230390452184498
67,636230390452349612
67,636230390452519737
67,636230390452684858
67,636230390452849976
67,636230390453020093
67,636230390453185210
67,636230390453355331
67,636230390453520457
67,636230390453685562
67,636230390453855691
67,636230390454020830
67,636230390454185934
67,636230390454356047
67,636230390454521173
67,636230390454691277
67,636230390454856591
67,636230390455021529
67,636230390455191821
67,636230390455356942
67,636230390455526875
67,636230390455692001
67,636230390455857119
67,636230390456027248
67,636230390456192361
67,636230390456357479
67,636230390456527600
67,636230390456692888
67,636230390456857822
67,636230390457027943
67,636230390457193060
67,636230390457363181
67,636230390457528303
67,636230390457693416
67,636230390457863537
67,636230390458028654
67,636230390458198775
67,636230390458363901
67,636230390458529010
67,636230390458699127
67,636230390458864248
67,636230390459029370
67,636230390459199487
67,636230390459364609
67,636230390459534721
67,636230390459699838
67,636230390459864960
67,636230390460035081
67,636230390460200198
67,636230390460365316
67,636230390460535437
67,636230390460700554
67,636230390460870680
67,636230390461035793
67,636230390461200910
67,636230390461371031
67,636230390461536148
67,636230390461701266
67,636230390461871387
67,636230390462036509
67,636230390462206625
67,636230390462371751
67,636230390462541872
67,636230390462706977
67,636230390462872107
67,636230390463037224
67,636230390463207337
67,636230390463372459
67,636230390463542575
67,636230390463707697
67,636230390463872810
67,636230390464042927
67,636230390464208048
67,636230390464373166
67,636230390464543287
67,636230390464708413
67,636230390464878525
67,636230390465043643
67,636230390465208760
67,636230390465378881
67,636230390465543998
67,636230390465709116
67,636230390465879237
67,636230390466044354
67,636230390466214475
67,636230390466379597
67,636230390466544714
67,636230390466714827
67,636230390466879948
67,636230390467045070
67,636230390467215191
67,636230390467380309
67,636230390467550425
67,636230390467715547
67,636230390467880660
67,636230390468050785
67,636230390468215899
67,636230390468386019
67,636230390468551145
67,636230390468716259
67,636230390468886371
67,636230390469051497
67,636230390469216614
67,636230390469386735
67,636230390469551857
67,636230390469721965
67,636230390469887091
67,636230390470052209
67,636230390470222325
67,636230390470387460
67,636230390470557564
67,636230390470722677
67,636230390470887803
67,636230390471057932
67,636230390471223045
67,636230390471388154
67,636230390471558271
67,636230390471723406
67,636230390471888510
67,636230390472058811
67,636230390472223761
67,636230390472393870
67,636230390472559171
67,636230390472724288
67,636230390472894221
67,636230390473059343
67,636230390473224464
67,636230390473394594
67,636230390473559707
67,636230390473729824
67,636230390473895125
67,636230390474060071
67,636230390474230171
67,636230390474395477
67,636230390474560598
67,636230390474730531
67,636230390474895837
67,636230390475065765
67,636230390475230904
67,636230390475396004
67,636230390475566125
67,636230390475731243
67,636230390475896356
67,636230390476066481
67,636230390476231599
67,636230390476401720
67,636230390476567029
67,636230390476731954
67,636230390476902229
67,636230390477067193
67,636230390477237314
67,636230390477402435
67,636230390477567553
67,636230390477737670
67,636230390477902787
67,636230390478067904
67,636230390478238209
67,636230390478403160
67,636230390478573264
67,636230390478738565
67,636230390478903687
67,636230390479073620
67,636230390479238754
67,636230390479403871
67,636230390479573971
67,636230390479739272
67,636230390479909214
67,636230390480074536
67,636230390480239449
67,636230390480409570
67,636230390480574867
67,636230390480739984
67,636230390480909921
67,636230390481075222
67,636230390481245164
67,636230390481410461
67,636230390481575416
67,636230390481745515
67,636230390481910641
67,636230390482075947
67,636230390482246081
67,636230390482410993
67,636230390482576106
67,636230390482746411
67,636230390482911537
67,636230390483081465
67,636230390483246775
67,636230390483411884
67,636230390483581842
67,636230390483747127
67,636230390483917064
67,636230390484082190
67,636230390484247299
67,636230390484417420
67,636230390484582742
67,636230390484747659
67,636230390484917784
67,636230390485082910
67,636230390485253014
67,636230390485418311
67,636230390485583437
67,636230390485753370
67,636230390485918667
67,636230390486083622
67,636230390486253734
67,636230390486419061
67,636230390486588964
67,636230390486754081
67,636230390486919378
67,636230390487089320
67,636230390487254450
67,636230390487419576
67,636230390487589688
67,636230390487754806
67,636230390487924914
67,636230390488090044
67,636230390488255337
67,636230390488425436
67,636230390488590601
67,636230390488760508
67,636230390488925809
67,636230390489090931
67,636230390489260864
67,636230390489425981
67,636230390489591111
67,636230390489761404
67,636230390489926517
67,636230390490091467
67,636230390490261588
67,636230390490426907
67,636230390490596814
67,636230390490762119
67,636230390490927049
67,636230390491097362
67,636230390491262300
67,636230390491432408
67,636230390491597538
67,636230390491762669
67,636230390491932785
67,636230390492097886
67,636230390492263011
67,636230390492433115
67,636230390492598459
67,636230390492768358
67,636230390492933471
67,636230390493098772
67,636230390493268710
67,636230390493434019
67,636230390493599137
67,636230390493769070
67,636230390493934208
67,636230390494104308
67,636230390494269430
67,636230390494434543
67,636230390494604664
67,636230390494769803
67,636230390494934894
67,636230390495105208
67,636230390495270133
67,636230390495440275
67,636230390495605388
67,636230390495770493
67,636230390495940610
67,636230390496105919
67,636230390496270857
67,636230390496440970
67,636230390496606284
67,636230390496776225
67,636230390496941514
67,636230390497106447
67,636230390497276726
67,636230390497441869
67,636230390497606983
67,636230390497777099
67,636230390497942058
67,636230390498112158
67,636230390498277280
67,636230390498442406
67,636230390498612510
67,636230390498777815
67,636230390498947752
67,636230390499112883
67,636230390499278180
67,636230390499448142
67,636230390499613225
67,636230390499778356
67,636230390499948460
67,636230390500113765
67,636230390500278716
67,636230390500448824
67,636230390500613950
67,636230390500784058
67,636230390500949385
67,636230390501114293
67,636230390501284410
67,636230390501449536
67,636230390501614649
67,636230390501784949
67,636230390501949904
67,636230390502120008
67,636230390502285143
67,636230390502452676
67,636230390502617597
67,636230390502787718
67,636230390502952844
67,636230390503118162
67,636230390503288074
67,636230390503453187
67,636230390503623312
67,636230390503788447
67,636230390503953547
67,636230390504123745
67,636230390504288785
67,636230390504454091
67,636230390504624024
67,636230390504789141
67,636230390504959262
67,636230390505124589
67,636230390505289681
67,636230390505459755
67,636230390505624744
67,636230390505789878
67,636230390505959987
67,636230390506125104
67,636230390506295212
67,636230390506460330
67,636230390506625473
67,636230390506795581
67,636230390506960869
67,636230390507125824
67,636230390507296112
67,636230390507461058
67,636230390507631162
67,636230390507796280
67,636230390507961581
67,636230390508131702
67,636230390508296648
67,636230390508461932
67,636230390508632058
67,636230390508797175
67,636230390508967108
67,636230390509132251
67,636230390509297535
67,636230390509467481
67,636230390509632598
67,636230390509802706
67,636230390509967837
67,636230390510133121
67,636230390510303071
67,636230390510468184
67,636230390510633293
67,636230390510803623
67,636230390510968715
67,636230390511138656
67,636230390511303778
67,636230390511468887
67,636230390511639021
67,636230390511804134
67,636230390511969247
67,636230390512139368
67,636230390512304665
67,636230390512474611
67,636230390512639720
67,636230390512804867
67,636230390512975043
67,636230390513140268
67,636230390513305197
67,636230390513475318
67,636230390513640431
67,636230390513810556
67,636230390513975858
67,636230390514140791
67,636230390514310912
67,636230390514476209
67,636230390514641147
67,636230390514811456
67,636230390514976569
67,636230390515146506
67,636230390515311808
67,636230390515476746
67,636230390515646862
67,636230390515812185
67,636230390515977281
67,636230390516147218
67,636230390516312519
67,636230390516482456
67,636230390516647591
67,636230390516812687
67,636230390516982812
67,636230390517148118
67,636230390517313051
67,636230390517483172
67,636230390517648285
67,636230390517818419
67,636230390517983524
67,636230390518148825
67,636230390518318775
67,636230390518483880
67,636230390518654001
67,636230390518819114
67,636230390518984235
67,636230390519154352
67,636230390519319658
67,636230390519484596
67,636230390519654738
67,636230390519819843
67,636230390519989951
67,636230390520155252
67,636230390520320203
67,636230390520490306
67,636230390520655603
67,636230390520820541
67,636230390520990850
67,636230390521155968
67,636230390521325901
67,636230390521491027
67,636230390521656161
67,636230390521826312
67,636230390521991378
67,636230390522156504
67,636230390522326612
67,636230390522491725
67,636230390522661859
67,636230390522826964
67,636230390522992098
67,636230390523162288
67,636230390523327320
67,636230390523492441
67,636230390523662567
67,636230390523827688
67,636230390523997814
67,636230390524163132
67,636230390524328036
67,636230390524498152
67,636230390524663454
67,636230390524828571
67,636230390524998696
67,636230390525163630
67,636230390525333751
67,636230390525498881
67,636230390525663981
67,636230390525834102
67,636230390525999408
67,636230390526164529
67,636230390526334462
67,636230390526499593
67,636230390526669701
67,636230390526835002
67,636230390526999948
67,636230390527170052
67,636230390527335358
67,636230390527500308
67,636230390527670592
67,636230390527835718
67,636230390528005651
67,636230390528170956
67,636230390528335886
67,636230390528506002
67,636230390528671308
67,636230390528836254
67,636230390529006550
67,636230390529171480
67,636230390529341601
67,636230390529506902
67,636230390529671848
67,636230390529841995
67,636230390530007262
67,636230390530172375
67,636230390530342496
67,636230390530507425
67,636230390530677555
67,636230390530842861
67,636230390531007803
67,636230390531178013
67,636230390531343208
67,636230390531508146
67,636230390531678446
67,636230390531843380
67,636230390532013501
67,636230390532178627
67,636230390532343753
67,636230390532513869
67,636230390532678995
67,636230390532844275
67,636230390533014217
67,636230390533179330
67,636230390533349451
67,636230390533514572
67,636230390533679686
67,636230390533849824
67,636230390534015112
67,636230390534180046
67,636230390534350167
67,636230390534515275
67,636230390534685401
67,636230390534850728
67,636230390535015636
67,636230390535185774
67,636230390535351058
67,636230390535520995
67,636230390535686112
67,636230390535851418
67,636230390536021351
67,636230390536186481
67,636230390536351590
67,636230390536521715
67,636230390536686845
67,636230390536856941
67,636230390537022242
67,636230390537187197
67,636230390537357296
67,636230390537522606
67,636230390537687553
67,636230390537857652
67,636230390538022787
67,636230390538192895
67,636230390538358196
67,636230390538523138
67,636230390538693264
67,636230390538858368
67,636230390539023490
67,636230390539193619
67,636230390539358912
67,636230390539528845
67,636230390539694151
67,636230390539859264
67,636230390540029197
67,636230390540194502
67,636230390540359637
67,636230390540529740
67,636230390540694678
67,636230390540864795
67,636230390541029917
67,636230390541195209
67,636230390541365147
67,636230390541530285
67,636230390541695574
67,636230390541865699
67,636230390542030628
67,636230390542200749
67,636230390542365862
67,636230390542530988
67,636230390542701101
67,636230390542866235
67,636230390543031340
67,636230390543201457
67,636230390543366578
67,636230390543536691
67,636230390543701830
67,636230390543866938
67,636230390544037047
67,636230390544202181
67,636230390544367303
67,636230390544537402
67,636230390544702708
67,636230390544872645
67,636230390545037797
67,636230390545202884
67,636230390545373215
67,636230390545538131
67,636230390545708252
67,636230390545873541
67,636230390546038662
67,636230390546208599
67,636230390546373730
67,636230390546539009
67,636230390546708947
67,636230390546874252
67,636230390547044189
67,636230390547209307
67,636230390547374428
67,636230390547544545
67,636230390547709667
67,636230390547874959
67,636230390548044914
67,636230390548210206
67,636230390548380139
67,636230390548545257
67,636230390548710378
67,636230390548880491
67,636230390549045805
67,636230390549210914
67,636230390549380859
67,636230390549545981
67,636230390549716089
67,636230390549881207
67,636230390550046333
67,636230390550216445
67,636230390550381562
67,636230390550546859
67,636230390550716814
67,636230390550881931
67,636230390551052039
67,636230390551217165
67,636230390551382274
67,636230390551552553
67,636230390551717718
67,636230390551882643
67,636230390552052747
67,636230390552218052
67,636230390552387989
67,636230390552553107
67,636230390552718404
67,636230390552888341
67,636230390553053458
67,636230390553218601
67,636230390553388709
67,636230390553553814
67,636230390553723939
67,636230390553889052
67,636230390554054187
67,636230390554224299
67,636230390554389430
67,636230390554559533
67,636230390554724835
67,636230390554889785
67,636230390555059885
67,636230390555225020
67,636230390555390150
67,636230390555560258
67,636230390555725358
67,636230390555895483
67,636230390556060605
67,636230390556225718
67,636230390556395839
67,636230390556561136
67,636230390556726095
67,636230390556896191
67,636230390557061330
67,636230390557231433
67,636230390557396572
67,636230390557561681
67,636230390557731789
67,636230390557896928
67,636230390558062020
67,636230390558232158
67,636230390558397280
67,636230390558567396
67,636230390558732689
67,636230390558897798
67,636230390559067735
67,636230390559232874
67,636230390559397987
67,636230390559568275
67,636230390559733221
67,636230390559903329
67,636230390560068635
67,636230390560233594
67,636230390560403689
67,636230390560568991
67,636230390560733937
67,636230390560904233
67,636230390561069180
67,636230390561239284
67,636230390561404397
67,636230390561569531
67,636230390561739639
67,636230390561904770
67,636230390562069870
67,636230390562239991
67,636230390562405108
67,636230390562575234
67,636230390562740535
67,636230390562905490
67,636230390563075585
67,636230390563240711
67,636230390563405837
67,636230390563575945
67,636230390563741063
67,636230390563911184
67,636230390564076305
67,636230390564241440
67,636230390564411535
67,636230390564576841
67,636230390564741791
67,636230390564911891
67,636230390565077196
67,636230390565247134
67,636230390565412431
67,636230390565577548
67,636230390565747524
67,636230390565912624
67,636230390566077733
67,636230390566248059
67,636230390566413168
67,636230390566583084
67,636230390566748201
67,636230390566913502
67,636230390567083525
67,636230390567248574
67,636230390567413862
67,636230390567583791
67,636230390567748913
67,636230390567919034
67,636230390568084155
67,636230390568249268
67,636230390568419556
67,636230390568584725
67,636230390568754628
67,636230390568919929
67,636230390569084884
67,636230390569254984
67,636230390569420114
67,636230390569585231
67,636230390569755356
67,636230390569920457
67,636230390570090582
67,636230390570255691
67,636230390570420808
67,636230390570590934
67,636230390570756256
67,636230390570921186
67,636230390571091302
67,636230390571256420
67,636230390571426528
67,636230390571591658
67,636230390571756946
67,636230390571926879
67,636230390572092001
67,636230390572257118
67,636230390572427248
67,636230390572592562
67,636230390572762491
67,636230390572927608
67,636230390573092713
67,636230390573262834
67,636230390573427951
67,636230390573593081
67,636230390573763373
67,636230390573928320
67,636230390574098428
67,636230390574263725
67,636230390574428667
67,636230390574598784
67,636230390574764085
67,636230390574929031
67,636230390575099135
67,636230390575264436
67,636230390575434399
67,636230390575599508
67,636230390575764797
67,636230390575934729
67,636230390576099851
67,636230390576265152
67,636230390576435102
67,636230390576600262
67,636230390576770328
67,636230390576935633
67,636230390577100751
67,636230390577270773
67,636230390577435989
67,636230390577600931
67,636230390577771219
67,636230390577936174
67,636230390578106282
67,636230390578271408
67,636230390578436530
67,636230390578606642
67,636230390578771760
67,636230390578937074
67,636230390579107216
67,636230390579272321
67,636230390579442241
67,636230390579607529
67,636230390579772647
67,636230390579942596
67,636230390580107889
67,636230390580272836
67,636230390580442939
67,636230390580608070
67,636230390580778178
67,636230390580943308
67,636230390581108408
67,636230390581278718
67,636230390581443647
67,636230390581613772
67,636230390581779090
67,636230390581944191
67,636230390582114124
67,636230390582279438
67,636230390582444564
67,636230390582614488
67,636230390582779622
67,636230390582949718
67,636230390583115049
67,636230390583279974
67,636230390583450078
67,636230390583615191
67,636230390583780326
67,636230390583950446
67,636230390584115547
67,636230390584285672
67,636230390584450969
67,636230390584615911
67,636230390584786032
67,636230390584951150
67,636230390585116447
67,636230390585286568
67,636230390585451698
67,636230390585621622
67,636230390585786757
67,636230390585956860
67,636230390586121978
67,636230390586287283
67,636230390586452213
67,636230390586622522
67,636230390586787468
67,636230390586957572
67,636230390587122702
67,636230390587287820
67,636230390587457928
67,636230390587623041
67,636230390587788347
67,636230390587958284
67,636230390588123414
67,636230390588293522
67,636230390588458819
67,636230390588623774
67,636230390588793959
67,636230390588958991
67,636230390589124297
67,636230390589294247
67,636230390589459556
67,636230390589629472
67,636230390589794590
67,636230390589959703
67,636230390590129828
67,636230390590294958
67,636230390590460247
67,636230390590630184
67,636230390590795485
67,636230390590965418
67,636230390591130561
67,636230390591295841
67,636230390591465992
67,636230390591630908
67,636230390591796013
67,636230390591966147
67,636230390592131264
67,636230390592301368
67,636230390592466673
67,636230390592631795
67,636230390592801741
67,636230390592966850
67,636230390593136966
67,636230390593302079
67,636230390593467381
67,636230390593637322
67,636230390593802623
67,636230390593967741
67,636230390594137691
67,636230390594302975
67,636230390594472916
67,636230390594638047
67,636230390594803168
67,636230390594973272
67,636230390595138390
67,636230390595303524
67,636230390595473628
67,636230390595638805
67,636230390595808866
67,636230390595973979
67,636230390596139118
67,636230390596309218
67,636230390596474523
67,636230390596639641
67,636230390596809574
67,636230390596974691
67,636230390597144816
67,636230390597309934
67,636230390597475068
67,636230390597645172
67,636230390597810473
67,636230390597975416
67,636230390598145716
67,636230390598310838
67,636230390598480766
67,636230390598646072
67,636230390598811010
67,636230390598981118
67,636230390599146423
67,636230390599311366
67,636230390599481487
67,636230390599646775
67,636230390599816716
67,636230390599982026
67,636230390600147131
67,636230390600317068
67,636230390600482190
67,636230390600647307
67,636230390600817612
67,636230390600982562
67,636230390601152666
67,636230390601317788
67,636230390601482901
67,636230390601653022
67,636230390601818328
67,636230390601983441
67,636230390602153391
67,636230390602318508
67,636230390602488621
67,636230390602653747
67,636230390602819031
67,636230390602988968
67,636230390603154269
67,636230390603319203
67,636230390603489341
67,636230390603654458
67,636230390603824575
67,636230390603989697
67,636230390604154801
67,636230390604324939
67,636230390604490223
67,636230390604660161
67,636230390604825295
67,636230390604990404
67,636230390605160521
67,636230390605325818
67,636230390605490948
67,636230390605660872
67,636230390605825985
67,636230390605996111
67,636230390606161232
67,636230390606326345
67,636230390606496462
67,636230390606661588
67,636230390606826710
67,636230390606996818
67,636230390607161944
67,636230390607332061
67,636230390607497191
67,636230390607662295
67,636230390607832416
67,636230390607997534
67,636230390608167655
67,636230390608332960
67,636230390608498074
66,636230390608668011
66,636230390608833312
66,636230390608998442
66,636230390609168362
66,636230390609333497
66,636230390609498606
66,636230390609668735
66,636230390609833857
66,636230390610003961
66,636230390610169266
66,636230390610334375
66,636230390610504312
66,636230390610669434
66,636230390610834568
66,636230390611004685
66,636230390611169802
66,636230390611339919
66,636230390611505208
66,636230390611670329
66,636230390611840301
66,636230390612005563
66,636230390612170506
66,636230390612340627
66,636230390612505757
66,636230390612675861
66,636230390612841166
66,636230390613006095
66,636230390613176216
66,636230390613341351
66,636230390613506511
66,636230390613676589
66,636230390613841702
66,636230390614011832
66,636230390614176937
66,636230390614342225
66,636230390614512166
66,636230390614677301
66,636230390614847405
66,636230390615012527
66,636230390615177635
66,636230390615347761
66,636230390615512891
66,636230390615677991
66,636230390615848116
66,636230390616013247
66,636230390616178356
66,636230390616348485
66,636230390616513590
66,636230390616683711
66,636230390616849012
66,636230390617014129
66,636230390617184079
66,636230390617349368
66,636230390617519318
66,636230390617684435
66,636230390617849724
66,636230390618019656
66,636230390618184787
66,636230390618350084
66,636230390618520012
66,636230390618685147
66,636230390618855255
66,636230390619020556
66,636230390619185490
66,636230390619355611
66,636230390619520921
66,636230390619685841
66,636230390619856146
66,636230390620021088
66,636230390620191205
66,636230390620356322
66,636230390620521624
66,636230390620691574
66,636230390620856862
66,636230390621021813
66,636230390621191916
66,636230390621357030
66,636230390621527159
66,636230390621692465
66,636230390621857574
66,636230390622027511
66,636230390622192812
66,636230390622357758
66,636230390622527866
66,636230390622692997
66,636230390622863105
66,636230390623028222
66,636230390623193524
66,636230390623363555
66,636230390623528591
66,636230390623693700
66,636230390623864000
66,636230390624029126
66,636230390624199051
66,636230390624364177
66,636230390624529290
66,636230390624699411
66,636230390624864532
66,636230390625034653
66,636230390625199784
66,636230390625364884
66,636230390625535005
66,636230390625700135
66,636230390625865424
66,636230390626035356
66,636230390626200478
66,636230390626365608
66,636230390626535905
66,636230390626700855
66,636230390626870959
66,636230390627036068
66,636230390627201305
66,636230390627371495
66,636230390627536432
66,636230390627701541
66,636230390627871855
66,636230390628036801
66,636230390628206905
66,636230390628372206
66,636230390628537157
66,636230390628707265
66,636230390628872374
66,636230390629042499
66,636230390629207612
66,636230390629372931
66,636230390629542855
66,636230390629708156
66,636230390629873269
66,636230390630043215
66,636230390630208512
66,636230390630378445
66,636230390630543579
66,636230390630708872
66,636230390630878869
66,636230390631043939
66,636230390631209057
66,636230390631379383
66,636230390631544351
66,636230390631714399
66,636230390631879700
66,636230390632044822
66,636230390632214751
66,636230390632380056
66,636230390632545003
66,636230390632715124
66,636230390632880245
66,636230390633050353
66,636230390633215479
66,636230390633380789
66,636230390633550701
66,636230390633716006
66,636230390633880953
66,636230390634051074
66,636230390634216174
66,636230390634386299
66,636230390634551434
66,636230390634716530
66,636230390634886655
66,636230390635051772
66,636230390635216894
66,636230390635387011
66,636230390635552351
66,636230390635722249
66,636230390635887550
66,636230390636052484
66,636230390636222601
66,636230390636387744
66,636230390636557843
66,636230390636722978
66,636230390636888095
66,636230390637058195
66,636230390637223500
66,636230390637388614
66,636230390637558564
66,636230390637723852
66,636230390637893793
66,636230390638058928
66,636230390638224216
66,636230390638394149
66,636230390638559262
66,636230390638724568
66,636230390638894689
66,636230390639059811
66,636230390639229743
66,636230390639394861
66,636230390639560162
66,636230390639730095
66,636230390639895430
66,636230390640060351
66,636230390640230635
66,636230390640395577
66,636230390640565689
66,636230390640730811
66,636230390640896009
66,636230390641066109
66,636230390641231162
66,636230390641396284
66,636230390641566422
66,636230390641731540
66,636230390641901656
66,636230390642066778
66,636230390642232066
66,636230390642402093
66,636230390642567134
66,636230390642732422
66,636230390642902543
66,636230390643067656
66,636230390643237606
66,636230390643402724
66,636230390643567833
66,636230390643737949
66,636230390643903079
66,636230390644068372
66,636230390644238318
66,636230390644403448
66,636230390644573543
66,636230390644738661
66,636230390644903975
66,636230390645073895
66,636230390645239029
66,636230390645404314
66,636230390645574268
66,636230390645739556
66,636230390645909511
66,636230390646074628
66,636230390646239741
66,636230390646409862
66,636230390646574984
66,636230390646740268
66,636230390646910222
66,636230390647075506
66,636230390647245443
66,636230390647410749
66,636230390647575683
66,636230390647745799
66,636230390647910929
66,636230390648076222
66,636230390648246172
66,636230390648411478
66,636230390648581393
66,636230390648746690
66,636230390648911816
66,636230390649081745
66,636230390649247051
66,636230390649412168
66,636230390649582161
66,636230390649747235
66,636230390649917343
66,636230390650082469
66,636230390650247587
66,636230390650417695
66,636230390650582817
66,636230390650747938
66,636230390650918055
66,636230390651083172
66,636230390651253289
66,636230390651418407
66,636230390651583533
66,636230390651753658
66,636230390651918775
66,636230390652083888
66,636230390652254014
66,636230390652419140
66,636230390652589243
66,636230390652754562
66,636230390652919658
66,636230390653089612
66,636230390653254730
66,636230390653424838
66,636230390653589968
66,636230390653755252
66,636230390653925193
66,636230390654090328
66,636230390654255441
66,636230390654425562
66,636230390654590671
66,636230390654760792
66,636230390654925905
66,636230390655091035
66,636230390655261139
66,636230390655426269
66,636230390655591374
66,636230390655761521
66,636230390655926801
66,636230390656096755
66,636230390656262043
66,636230390656426968
66,636230390656597094
66,636230390656762207
66,636230390656927328
66,636230390657097466
66,636230390657262562
66,636230390657432722
66,636230390657598019
66,636230390657762940
66,636230390657933073
66,636230390658098161
66,636230390658263462
66,636230390658433416
66,636230390658598538
66,636230390658768638
66,636230390658933960
66,636230390659098881
66,636230390659268989
66,636230390659434295
66,636230390659599412
66,636230390659769537
66,636230390659934471
66,636230390660104592
66,636230390660269718
66,636230390660434835
66,636230390660604944
66,636230390660770249
66,636230390660935362
66,636230390661105299
66,636230390661270639
66,636230390661440538
66,636230390661605835
66,636230390661770777
66,636230390661940906
66,636230390662106195
66,636230390662271312
66,636230390662441249
66,636230390662606371
66,636230390662776488
66,636230390662941614
66,636230390663106928
66,636230390663277032
66,636230390663441957
66,636230390663607091
66,636230390663777388
66,636230390663942338
66,636230390664112433
66,636230390664277555
66,636230390664442856
66,636230390664612977
66,636230390664777924
66,636230390664948036
66,636230390665113162
66,636230390665278284
66,636230390665448401
66,636230390665613501
66,636230390665778806
66,636230390665948761
66,636230390666113857
66,636230390666283986
66,636230390666449279
66,636230390666614238
66,636230390666784351
66,636230390666949464
66,636230390667114756
66,636230390667284694
66,636230390667450016
66,636230390667619932
66,636230390667785054
66,636230390667950184
66,636230390668120288
66,636230390668285508
66,636230390668450523
66,636230390668620644
66,636230390668785761
66,636230390668955891
66,636230390669121004
66,636230390669286130
66,636230390669456234
66,636230390669621372
66,636230390669786485
66,636230390669956606
66,636230390670121711
66,636230390670291836
66,636230390670457133
66,636230390670622067
66,636230390670792188
66,636230390670957305
66,636230390671127430
66,636230390671292565
66,636230390671457853
66,636230390671627782
66,636230390671792899
66,636230390671958017
66,636230390672128317
66,636230390672293272
66,636230390672458557
66,636230390672628678
66,636230390672793611
66,636230390672963736
66,636230390673129038
66,636230390673293984
66,636230390673464109
66,636230390673629210
66,636230390673794344
66,636230390673964632
66,636230390674129578
66,636230390674299682
66,636230390674464817
66,636230390674629934
66,636230390674800038
66,636230390674965155
66,636230390675135276
66,636230390675300411
66,636230390675465515
66,636230390675635632
66,636230390675800762
66,636230390675966046
66,636230390676136172
66,636230390676301289
66,636230390676471226
66,636230390676636528
66,636230390676801645
66,636230390676971638
66,636230390677136704
66,636230390677302086
66,636230390677472019
66,636230390677637154
66,636230390677807253
66,636230390677972383
66,636230390678137484
66,636230390678307609
66,636230390678472726
66,636230390678638032
66,636230390678807978
66,636230390678973270
66,636230390679143203
66,636230390679308338
66,636230390679473618
66,636230390679643610
66,636230390679808681
66,636230390679973807
66,636230390680143928
66,636230390680309045
66,636230390680479153
66,636230390680644476
66,636230390680809388
66,636230390680979505
66,636230390681144622
66,636230390681309757
66,636230390681479882
66,636230390681644987
66,636230390681815108
66,636230390681980221
66,636230390682145334
66,636230390682315455
66,636230390682480594
66,636230390682645694
66,636230390682815836
66,636230390682980937
66,636230390683151053
66,636230390683316192
66,636230390683481292
66,636230390683651409
66,636230390683816539
66,636230390683981648
66,636230390684151765
66,636230390684316895
66,636230390684486999
66,636230390684652305
66,636230390684817238
66,636230390684987368
66,636230390685152494
66,636230390685317620
66,636230390685487715
66,636230390685653033
66,636230390685822953
66,636230390685988084
66,636230390686153201
66,636230390686323309
66,636230390686488444
66,636230390686658547
66,636230390686823682
66,636230390686988799
66,636230390687158908
66,636230390687324021
66,636230390687489318
66,636230390687659443
66,636230390687824381
66,636230390687994502
66,636230390688159632
66,636230390688324920
66,636230390688494853
66,636230390688660150
66,636230390688825101
66,636230390688995427
66,636230390689160510
66,636230390689330447
66,636230390689495586
66,636230390689660695
66,636230390689830803
66,636230390689996117
66,636230390690161222
66,636230390690331168
66,636230390690496277
66,636230390690666415
66,636230390690831528
66,636230390690996649
66,636230390691166860
66,636230390691331888
66,636230390691497176
66,636230390691667122
66,636230390691832227
66,636230390692002347
66,636230390692167653
66,636230390692332599
66,636230390692502703
66,636230390692667821
66,636230390692833126
66,636230390693003076
66,636230390693168198
66,636230390693338310
66,636230390693503599
66,636230390693668716
66,636230390693838653
66,636230390694003792
66,636230390694168888
66,636230390694339026
66,636230390694504144
66,636230390694674252
66,636230390694839553
66,636230390695004487
66,636230390695174603
66,636230390695339725
66,636230390695505026
66,636230390695674976
66,636230390695840077
66,636230390696010198
66,636230390696175495
66,636230390696340449
66,636230390696510596
66,636230390696675692
66,636230390696840788
66,636230390697010909
66,636230390697176031
66,636230390697346148
66,636230390697511449
66,636230390697676571
66,636230390697846704
66,636230390698011638
66,636230390698176742
66,636230390698346855
66,636230390698511998
66,636230390698682102
66,636230390698847228
66,636230390699012341
66,636230390699182458
66,636230390699347575
66,636230390699517692
66,636230390699682818
66,636230390699847948
66,636230390700018048
66,636230390700183186
66,636230390700348282
66,636230390700518420
66,636230390700683713
66,636230390700848655
66,636230390701018776
66,636230390701183881
66,636230390701353998
66,636230390701519333
66,636230390701684245
66,636230390701854546
66,636230390702019655
66,636230390702184592
66,636230390702354709
66,636230390702520006
66,636230390702689948
66,636230390702855074
66,636230390703020182
66,636230390703190308
66,636230390703355438
66,636230390703525542
66,636230390703690672
66,636230390703855785
66,636230390704025893
66,636230390704191199
66,636230390704356150
66,636230390704526275
66,636230390704691559
66,636230390704861509
66,636230390705026613
66,636230390705191727
66,636230390705361852
66,636230390705526969
66,636230390705692279
66,636230390705862383
66,636230390706027505
66,636230390706197442
66,636230390706362576
66,636230390706527677
66,636230390706697798
66,636230390706862954
66,636230390707028032
66,636230390707198337
66,636230390707363279
66,636230390707533396
66,636230390707698522
66,636230390707863631
66,636230390708033743
66,636230390708199053
66,636230390708363982
66,636230390708534292
66,636230390708699349
66,636230390708869350
66,636230390709034647
66,636230390709199581
66,636230390709369698
66,636230390709534999
66,636230390709699932
66,636230390709870053
66,636230390710035192
66,636230390710205292
66,636230390710370593
66,636230390710535544
66,636230390710705840
66,636230390710870949
66,636230390711036066
66,636230390711206025
66,636230390711371125
66,636230390711541246
66,636230390711706364
66,636230390711871494
66,636230390712041619
66,636230390712206736
66,636230390712371850
66,636230390712541966
66,636230390712707263
66,636230390712877192
66,636230390713042326
66,636230390713207439
66,636230390713377573
66,636230390713542849
66,636230390713707800
66,636230390713878143
66,636230390714043226
66,636230390714213172
66,636230390714378285
66,636230390714543394
66,636230390714713502
66,636230390714878628
66,636230390715048736
66,636230390715214042
66,636230390715379155
66,636230390715549135
66,636230390715714209
66,636230390715879335
66,636230390716049478
66,636230390716214565
66,636230390716384699
66,636230390716549816
66,636230390716715105
66,636230390716885046
66,636230390717050164
66,636230390717215461
66,636230390717385402
66,636230390717550536
66,636230390717720640
66,636230390717885762
66,636230390718051055
66,636230390718220996
66,636230390718386131
66,636230390718551411
66,636230390718721348
66,636230390718886645
66,636230390719056599
66,636230390719221887
66,636230390719386838
66,636230390719556942
66,636230390719722059
66,636230390719887361
66,636230390720057298
66,636230390720222424
66,636230390720392536
66,636230390720557653
66,636230390720722955
66,636230390720892892
66,636230390721058026
66,636230390721223140
66,636230390721393265
66,636230390721558553
66,636230390721728486
66,636230390721893608
66,636230390722058725
66,636230390722229034
66,636230390722393959
66,636230390722564080
66,636230390722729407
66,636230390722894319
66,636230390723064470
66,636230390723229571
66,636230390723394671
66,636230390723564976
66,636230390723729926
66,636230390723900035
66,636230390724065161
66,636230390724230269
66,636230390724400433
66,636230390724567107
66,636230390724734128
66,636230390724901118
66,636230390725065376
66,636230390725235514
66,636230390725402928
66,636230390725569115
66,636230390725735977
66,636230390725902219
66,636230390726067589
66,636230390726235584
66,636230390726401185
66,636230390726571699
66,636230390726734734
66,636230390726905163
66,636230390727070580
66,636230390727237801
66,636230390727406686
66,636230390727573121
66,636230390727739354
66,636230390727907384
66,636230390728071805
66,636230390728240638
66,636230390728405940
66,636230390728576232
66,636230390728741328
66,636230390728907266
66,636230390729076177
66,636230390729241872
66,636230390729410043
66,636230390729574078
66,636230390729744131
66,636230390729907584
66,636230390730078116
66,636230390730245094
66,636230390730410036
66,636230390730575145
66,636230390730745270
66,636230390730910392
66,636230390731080508
66,636230390731247571
66,636230390731412689
66,636230390731577819
66,636230390731748090
66,636230390731915876
66,636230390732080356
66,636230390732248972
66,636230390732416172
66,636230390732582897
66,636230390732746620
66,636230390732914492
66,636230390733084609
66,636230390733249931
66,636230390733415049
66,636230390733584960
66,636230390733750082
66,636230390733915212
66,636230390734085320
66,636230390734250433
66,636230390734420563
66,636230390734585689
66,636230390734750811
66,636230390734920953
66,636230390735086049
66,636230390735256153
66,636230390735421266
66,636230390735586388
66,636230390735756521
66,636230390735921630
66,636230390736086739
66,636230390736256864
66,636230390736421982
66,636230390736592103
66,636230390736757408
66,636230390736922355
66,636230390737092463
66,636230390737257764
66,636230390737427697
66,636230390737593020
66,636230390737758133
66,636230390737928057
66,636230390738093170
66,636230390738258467
66,636230390738428417
66,636230390738593526
66,636230390738758827
66,636230390738928773
66,636230390739093886
66,636230390739264016
66,636230390739429137
66,636230390739594417
66,636230390739764367
66,636230390739929476
66,636230390740094593
66,636230390740264727
66,636230390740429845
66,636230390740599953
66,636230390740765083
66,636230390740930384
66,636230390741100304
66,636230390741265426
66,636230390741430552
66,636230390741600848
66,636230390741765782
66,636230390741935903
66,636230390742101020
66,636230390742266317
66,636230390742436443
66,636230390742601393
66,636230390742766493
66,636230390742936803
66,636230390743101736
66,636230390743271853
66,636230390743437000
66,636230390743602276
66,636230390743772367
66,636230390743937322
66,636230390744107447
66,636230390744272765
66,636230390744437861
66,636230390744607803
66,636230390744773104
66,636230390744938059
66,636230390745108154
66,636230390745273460
66,636230390745438402
66,636230390745608540
66,636230390745773640
66,636230390745943770
66,636230390746108887
66,636230390746274001
66,636230390746444254
66,636230390746609307
66,636230390746779356
66,636230390746944644
66,636230390747109595
66,636230390747279703
66,636230390747444833
66,636230390747609951
66,636230390747780063
66,636230390747945364
66,636230390748115293
66,636230390748280432
66,636230390748445741
66,636230390748615657
66,636230390748780775
66,636230390748945896
66,636230390749116026
66,636230390749281126
66,636230390749451247
66,636230390749616548
66,636230390749781490
66,636230390749951663
66,636230390750116720
66,636230390750281851
66,636230390750451963
66,636230390750617239
66,636230390750787210
66,636230390750952332
66,636230390751117428
66,636230390751287557
66,636230390751452692
66,636230390751617805
66,636230390751787909
66,636230390751953039
66,636230390752123147
66,636230390752288264
66,636230390752453399
66,636230390752623499
66,636230390752788620
66,636230390752953926
66,636230390753123863
66,636230390753289164
66,636230390753459097
66,636230390753624227
66,636230390753789349
66,636230390753959453
66,636230390754124754
66,636230390754289692
66,636230390754459993
66,636230390754625110
66,636230390754795043
66,636230390754960177
66,636230390755125295
66,636230390755295399
66,636230390755460516
66,636230390755625642
66,636230390755795754
66,636230390755961060
66,636230390756130997
66,636230390756296123
66,636230390756461236
66,636230390756631353
66,636230390756796483
66,636230390756961605
66,636230390757131893
66,636230390757297006
66,636230390757466956
66,636230390757632077
66,636230390757797182
66,636230390757967316
66,636230390758132604
66,636230390758302537
66,636230390758467680
66,636230390758632964
66,636230390758802893
66,636230390758968198
66,636230390759133145
66,636230390759303257
66,636230390759468550
66,636230390759638491
66,636230390759803788
66,636230390759968722
66,636230390760138847
66,636230390760303973
66,636230390760469091
66,636230390760639203
66,636230390760804316
66,636230390760974441
66,636230390761139559
66,636230390761304685
66,636230390761474806
66,636230390761640107
66,636230390761805182
66,636230390761975337
66,636230390762140454
66,636230390762310391
66,636230390762475693
66,636230390762640806
66,636230390762810756
66,636230390762975865
66,636230390763140995
66,636230390763311317
66,636230390763476220
66,636230390763646341
66,636230390763811454
66,636230390763976576
66,636230390764146701
66,636230390764311998
66,636230390764476945
66,636230390764647070
66,636230390764812350
66,636230390764982296
66,636230390765147422
66,636230390765312714
66,636230390765482647
66,636230390765647782
66,636230390765812882
66,636230390765983183
66,636230390766148116
66,636230390766318241
66,636230390766483363
66,636230390766648489
66,636230390766818606
66,636230390766983723
66,636230390767149016
66,636230390767319137
66,636230390767484070
66,636230390767654191
66,636230390767819488
66,636230390767984426
66,636230390768154616
66,636230390768319677
66,636230390768484795
66,636230390768654907
66,636230390768820033
66,636230390768990146
66,636230390769155276
66,636230390769320372
66,636230390769490681
66,636230390769655623
66,636230390769825736
66,636230390769990849
66,636230390770155979
66,636230390770326160
66,636230390770491226
66,636230390770656514
66,636230390770826627
66,636230390770991569
66,636230390771161686
66,636230390771326807
66,636230390771491920
66,636230390771662157
66,636230390771827159
66,636230390771992293
66,636230390772162602
66,636230390772327694
66,636230390772497636
66,636230390772662937
66,636230390772827870
66,636230390772998090
66,636230390773163293
66,636230390773328406
66,636230390773498343
66,636230390773663653
66,636230390773833586
66,636230390773998703
66,636230390774163820
66,636230390774333950
66,636230390774499243
66,636230390774664172
66,636230390774834485
66,636230390774999427
66,636230390775169536
66,636230390775334841
66,636230390775499954
66,636230390775669891
66,636230390775835193
66,636230390776000306
66,636230390776170260
66,636230390776335377
66,636230390776505486
66,636230390776670783
66,636230390776835904
66,636230390777005867
66,636230390777170967
66,636230390777336256
66,636230390777506210
66,636230390777671327
66,636230390777841440
66,636230390778006566
66,636230390778171670
66,636230390778341787
66,636230390778507093
66,636230390778677030
66,636230390778842327
66,636230390779007453
66,636230390779177386
66,636230390779342683
66,636230390779507616
66,636230390779677887
66,636230390779843043
66,636230390780007981
66,636230390780178281
66,636230390780343215
66,636230390780513336
66,636230390780678457
66,636230390780843754
66,636230390781013875
66,636230390781178822
66,636230390781348926
66,636230390781514060
66,636230390781679349
66,636230390781849286
66,636230390782014399
66,636230390782179525
66,636230390782349821
66,636230390782514939
66,636230390782679872
66,636230390782850181
66,636230390783015294
66,636230390783185236
66,636230390783350349
66,636230390783515466
66,636230390783685600
66,636230390783850747
66,636230390784020838
66,636230390784185952
66,636230390784351078
66,636230390784521233
66,636230390784686393
66,636230390784851600
66,636230390785021541
66,636230390785186655
66,636230390785356780
66,636230390785521897
66,636230390785687199
66,636230390785857153
66,636230390786022253
66,636230390786187375
66,636230390786357509
66,636230390786522609
66,636230390786692756
66,636230390786857847
66,636230390787022965
66,636230390787193081
66,636230390787358387
66,636230390787523316
66,636230390787693459
66,636230390787858743
66,636230390788028680
66,636230390788193797
66,636230390788358932
66,636230390788529168
66,636230390788694380
66,636230390788859266
66,636230390789029571
66,636230390789194509
66,636230390789364630
66,636230390789529927
66,636230390789694878
66,636230390789865140
66,636230390790030283
66,636230390790195221
66,636230390790365363
66,636230390790530480
66,636230390790700576
66,636230390790865881
67,636230390791030999
67,636230390791200949
67,636230390791366070
67,636230390791531188
67,636230390791701287
67,636230390791866593
67,636230390792036530
67,636230390792201647
67,636230390792366760
67,636230390792536903
67,636230390792702208
67,636230390792867326
67,636230390793037254
67,636230390793202539
67,636230390793372480
67,636230390793537777
67,636230390793702715
67,636230390793873028
67,636230390794037949
67,636230390794208074
67,636230390794373192
67,636230390794538313
67,636230390794708473
67,636230390794873564
67,636230390795038660
67,636230390795208799
67,636230390795374087
67,636230390795544054
67,636230390795709154
67,636230390795874447
67,636230390796044389
67,636230390796209681
67,636230390796374628
67,636230390796544740
67,636230390796710046
67,636230390796879978
67,636230390797045092
67,636230390797210431
67,636230390797380433
67,636230390797545460
67,636230390797710569
67,636230390797880865
67,636230390798045816
67,636230390798215920
67,636230390798381042
67,636230390798546176
67,636230390798716289
67,636230390798891405
67,636230390799046511
67,636230390799216632
67,636230390799381766
67,636230390799551874
67,636230390799717180
67,636230390799882126
67,636230390800052230
67,636230390800217343
67,636230390800382461
67,636230390800552637
67,636230390800717712
67,636230390800887828
67,636230390801053108
67,636230390801218269
67,636230390801388176
67,636230390801553310
67,636230390801718428
67,636230390801888536
67,636230390802053670
67,636230390802223774
67,636230390802388892
67,636230390802554189
67,636230390802724130
67,636230390802889252
67,636230390803059368
67,636230390803224721
67,636230390803389804
67,636230390803559737
67,636230390803724854
67,636230390803889955
67,636230390804060093
67,636230390804225219
67,636230390804395314
67,636230390804560615
67,636230390804725566
67,636230390804895687
67,636230390805060804
67,636230390805226114
67,636230390805396039
67,636230390805561160
67,636230390805731268
67,636230390805896574
67,636230390806061687
67,636230390806231633
67,636230390806396754
67,636230390806562043
67,636230390806731993
67,636230390806897102
67,636230390807067236
67,636230390807232340
67,636230390807397449
67,636230390807567690
67,636230390807732905
67,636230390807897809
67,636230390808067943
67,636230390808233231
67,636230390808403168
67,636230390808568465
67,636230390808733587
67,636230390808903533
67,636230390809068642
67,636230390809233763
67,636230390809403884
67,636230390809569207
67,636230390809739114
67,636230390809904236
67,636230390810069375
67,636230390810239470
67,636230390810404604
67,636230390810569709
67,636230390810740014
67,636230390810904947
67,636230390811075068
67,636230390811240212
67,636230390811405487
67,636230390811575433
67,636230390811740721
67,636230390811905672
67,636230390812075964
67,636230390812240910
67,636230390812411018
67,636230390812576328
67,636230390812741262
67,636230390812911400
67,636230390813076487
67,636230390813241613
67,636230390813411730
67,636230390813576852
67,636230390813746968
67,636230390813912094
67,636230390814077404
67,636230390814247423
67,636230390814412656
67,636230390814577572
67,636230390814747868
67,636230390814912810
67,636230390815082923
67,636230390815248032
67,636230390815413153
67,636230390815583287
67,636230390815748405
67,636230390815913731
67,636230390816083630
67,636230390816248756
67,636230390816418868
67,636230390816584003
67,636230390816749103
67,636230390816919237
67,636230390817084363
67,636230390817249472
67,636230390817419593
67,636230390817584698
67,636230390817754823
67,636230390817919932
67,636230390818085267
67,636230390818255384
67,636230390818420287
67,636230390818590413
67,636230390818755620
67,636230390818920648
67,636230390819090790
67,636230390819255886
67,636230390819421187
67,636230390819591133
67,636230390819756250
67,636230390819926363
67,636230390820091480
67,636230390820256807
67,636230390820426719
67,636230390820591853
67,636230390820756966
67,636230390820927258
67,636230390821092376
67,636230390821262313
67,636230390821427426
67,636230390821592543
67,636230390821762681
67,636230390821927807
67,636230390822097907
67,636230390822263225
67,636230390822428326
67,636230390822598263
67,636230390822763380
67,636230390822928681
67,636230390823098657
67,636230390823263916
67,636230390823428866
67,636230390823598987
67,636230390823764109
67,636230390823934213
67,636230390824099330
67,636230390824264661
67,636230390824434646
67,636230390824599682
67,636230390824764987
67,636230390824934937
67,636230390825100042
67,636230390825270163
67,636230390825435314
67,636230390825600393
67,636230390825770655
67,636230390825935636
67,636230390826100758
67,636230390826270874
67,636230390826436005
67,636230390826606113
67,636230390826771414
67,636230390826936360
67,636230390827106657
67,636230390827271766
67,636230390827436887
67,636230390827607004
67,636230390827771959
67,636230390827942063
67,636230390828107184
67,636230390828272302
67,636230390828442598
67,636230390828607545
67,636230390828777657
67,636230390828942787
67,636230390829107892
67,636230390829278026
67,636230390829443126
67,636230390829608260
67,636230390829778364
67,636230390829943670
67,636230390830113607
67,636230390830278729
67,636230390830443842
67,636230390830613967
67,636230390830779076
67,636230390830944403
67,636230390831114336
67,636230390831279616
67,636230390831449557
67,636230390831614687
67,636230390831779788
67,636230390831949951
67,636230390832115214
67,636230390832280331
67,636230390832450273
67,636230390832615570
67,636230390832785507
67,636230390832950804
67,636230390833115921
67,636230390833285876
67,636230390833451160
67,636230390833616115
67,636230390833786214
67,636230390833951516
67,636230390834121457
67,636230390834286587
67,636230390834451726
67,636230390834621821
67,636230390834786926
67,636230390834952232
67,636230390835122348
67,636230390835287299
67,636230390835457411
67,636230390835622524
67,636230390835787655
67,636230390835957771
67,636230390836122876
67,636230390836287998
67,636230390836458131
67,636230390836623266
67,636230390836793374
67,636230390836958470
67,636230390837123588
67,636230390837293918
67,636230390837458843
67,636230390837628951
67,636230390837794253
67,636230390837959378
67,636230390838129307
67,636230390838294420
67,636230390838459726
67,636230390838629663
67,636230390838794797
67,636230390838964905
67,636230390839130036
67,636230390839295149
67,636230390839465270
67,636230390839630554
67,636230390839795496
67,636230390839965792
67,636230390840130910
67,636230390840300851
67,636230390840466157
67,636230390840631103
67,636230390840801263
67,636230390840966324
67,636230390841131626
67,636230390841301559
67,636230390841466864
67,636230390841636801
67,636230390841801931
67,636230390841967049
67,636230390842137166
67,636230390842302287
67,636230390842467388
67,636230390842637509
67,636230390842802643
67,636230390842972751
67,636230390843138053
67,636230390843302986
67,636230390843473111
67,636230390843638224
67,636230390843803342
67,636230390843973480
67,636230390844138576
67,636230390844308697
67,636230390844473814
67,636230390844639116
67,636230390844809057
67,636230390844974213
67,636230390845139292
67,636230390845309409
67,636230390845474526
67,636230390845644651
67,636230390845809782
67,636230390845974903
67,636230390846145016
67,636230390846310308
67,636230390846475255
67,636230390846645542
67,636230390846810660
67,636230390846980601
67,636230390847145723
67,636230390847310862
67,636230390847480957
67,636230390847646092
67,636230390847811205
67,636230390847981326
67,636230390848146614
67,636230390848316547
67,636230390848481669
67,636230390848646799
67,636230390848816933
67,636230390848982020
67,636230390849147155
67,636230390849317271
67,636230390849482385
67,636230390849652514
67,636230390849817632
67,636230390849982753
67,636230390850152921
67,636230390850317970
67,636230390850483105
67,636230390850653213
67,636230390850818326
67,636230390850988451
67,636230390851153748
67,636230390851318690
67,636230390851488811
67,636230390851654104
67,636230390851819042
67,636230390851989351
67,636230390852154464
67,636230390852324401
67,636230390852489532
67,636230390852654824
67,636230390852824941
67,636230390852989879
67,636230390853159996
67,636230390853325169
67,636230390853490453
67,636230390853660437
67,636230390853825520
67,636230390853990637
67,636230390854160746
67,636230390854325880
67,636230390854495984
67,636230390854661285
67,636230390854826403
67,636230390854996353
67,636230390855161637
67,636230390855326759
67,636230390855496691
67,636230390855661826
67,636230390855831934
67,636230390855997231
67,636230390856162186
67,636230390856332290
67,636230390856497587
67,636230390856662542
67,636230390856832830
67,636230390856997951
67,636230390857167884
67,636230390857333014
67,636230390857498303
67,636230390857668248
67,636230390857833357
67,636230390857998659
67,636230390858168608
67,636230390858333935
67,636230390858503834
67,636230390858669131
67,636230390858834257
67,636230390859004198
67,636230390859169495
67,636230390859334420
67,636230390859504563
67,636230390859669667
67,636230390859839784
67,636230390860004910
67,636230390860170198
67,636230390860340195
67,636230390860505283
67,636230390860670388
67,636230390860840496
67,636230390861005630
67,636230390861175734
67,636230390861340864
67,636230390861505982
67,636230390861676103
67,636230390861841212
67,636230390862006329
67,636230390862176463
67,636230390862341559
67,636230390862511688
67,636230390862676814
67,636230390862842103
67,636230390863012044
67,636230390863177341
67,636230390863342459
67,636230390863512580
67,636230390863677697
67,636230390863847634
67,636230390864012764
67,636230390864177882
67,636230390864348007
67,636230390864513295
67,636230390864683228
67,636230390864848525
67,636230390865013476
67,636230390865183588
67,636230390865348701
67,636230390865513823
67,636230390865683991
67,636230390865849053
67,636230390866014179
67,636230390866184317
67,636230390866349426
67,636230390866519534
67,636230390866684651
67,636230390866849777
67,636230390867019890
67,636230390867185003
67,636230390867350133
67,636230390867520434
67,636230390867685376
67,636230390867855493
67,636230390868020785
67,636230390868185732
67,636230390868355853
67,636230390868520962
67,636230390868691083
67,636230390868856196
67,636230390869021501
67,636230390869191447
67,636230390869356547
67,636230390869521682
67,636230390869691803
67,636230390869856924
67,636230390870027037
67,636230390870192334
67,636230390870357263
67,636230390870527388
67,636230390870692711
67,636230390870857837
67,636230390871027945
67,636230390871193063
67,636230390871362978
67,636230390871528284
67,636230390871693397
67,636230390871863420
67,636230390872028464
67,636230390872193757
67,636230390872363870
67,636230390872528812
67,636230390872698928
67,636230390872864063
67,636230390873029347
67,636230390873199434
67,636230390873364406
67,636230390873529711
67,636230390873699832
67,636230390873864757
67,636230390874034883
67,636230390874199991
67,636230390874365109
67,636230390874535238
67,636230390874700364
67,636230390874870477
67,636230390875035778
67,636230390875200908
67,636230390875370833
67,636230390875536125
67,636230390875701076
67,636230390875871364
67,636230390876036490
67,636230390876201415
67,636230390876371536
67,636230390876536657
67,636230390876706928
67,636230390876871921
67,636230390877037218
67,636230390877207339
67,636230390877372435
67,636230390877542373
67,636230390877707486
67,636230390877872603
67,636230390878042728
67,636230390878208025
67,636230390878373147
67,636230390878543264
67,636230390878708206
67,636230390878878323
67,636230390879043449
67,636230390879208574
67,636230390879378717
67,636230390879543975
67,636230390879709097
67,636230390879879047
67,636230390880044340
67,636230390880214273
67,636230390880379411
67,636230390880544696
67,636230390880714628
67,636230390880879771
67,636230390881044876
67,636230390881214997
67,636230390881380290
67,636230390881550227
67,636230390881715340
67,636230390881880457
67,636230390882050591
67,636230390882215880
67,636230390882380809
67,636230390882550934
67,636230390882716052
67,636230390882886177
67,636230390883051299
67,636230390883216412
67,636230390883386533
67,636230390883551860
67,636230390883716759
67,636230390883886888
67,636230390884052186
67,636230390884222123
67,636230390884387244
67,636230390884552546
67,636230390884722474
67,636230390884887600
67,636230390885057730
67,636230390885222843
67,636230390885387956
67,636230390885558090
67,636230390885723395
67,636230390885888320
67,636230390886058437
67,636230390886223563
67,636230390886388659
67,636230390886558968
67,636230390886723919
67,636230390886894035
67,636230390887059324
67,636230390887224446
67,636230390887394391
67,636230390887559509
67,636230390887729617
67,636230390887894730
67,636230390888059856
67,636230390888229985
67,636230390888395103
67,636230390888560216
67,636230390888730341
67,636230390888895634
67,636230390889065567
67,636230390889230684
67,636230390889395986
67,636230390889565927
67,636230390889731053
67,636230390889896346
67,636230390890066278
67,636230390890231584
67,636230390890401513
67,636230390890566822
67,636230390890731936
67,636230390890901881
67,636230390891067174
67,636230390891232291
67,636230390891402412
67,636230390891567354
67,636230390891737480
67,636230390891902580
67,636230390892067714
67,636230390892237835
67,636230390892402953
67,636230390892568070
67,636230390892738178
67,636230390892903480
67,636230390893073421
67,636230390893238722
67,636230390893403831
67,636230390893573790
67,636230390893738894
67,636230390893904196
67,636230390894074146
67,636230390894239430
67,636230390894409380
67,636230390894574497
67,636230390894739781
67,636230390894909740
67,636230390895074844
67,636230390895239975
67,636230390895410078
67,636230390895575209
67,636230390895745330
67,636230390895910447
67,636230390896075761
67,636230390896245720
67,636230390896411000
67,636230390896580924
67,636230390896746024
67,636230390896911142
67,636230390897081267
67,636230390897246384
67,636230390897411686
67,636230390897581631
67,636230390897746766
67,636230390897911866
67,636230390898081996
67,636230390898247301
67,636230390898417230
67,636230390898582339
67,636230390898747631
67,636230390898917598
67,636230390899082707
67,636230390899247991
67,636230390899417941
67,636230390899583157
67,636230390899753175
67,636230390899918293
67,636230390900083406
67,636230390900253724
67,636230390900418653
67,636230390900588761
67,636230390900754058
67,636230390900919009
67,636230390901089113
67,636230390901254234
67,636230390901419373
67,636230390901589473
67,636230390901754586
67,636230390901924724
67,636230390902089841
67,636230390902254946
67,636230390902425075
67,636230390902590184
67,636230390902755490
67,636230390902925440
67,636230390903090540
67,636230390903260661
67,636230390903425796
67,636230390903591080
67,636230390903761025
67,636230390903926139
67,636230390904091260
67,636230390904261557
67,636230390904426674
67,636230390904596615
67,636230390904761741
67,636230390904926859
67,636230390905096967
67,636230390905262268
67,636230390905427206
67,636230390905597507
67,636230390905762453
67,636230390905932561
67,636230390906097867
67,636230390906262813
67,636230390906432917
67,636230390906598218
67,636230390906763169
67,636230390906933273
67,636230390907098390
67,636230390907268511
67,636230390907433641
67,636230390907598746
67,636230390907768871
67,636230390907933984
67,636230390908099119
67,636230390908269231
67,636230390908434524
67,636230390908604470
67,636230390908769762
67,636230390908934700
67,636230390909104817
67,636230390909270118
67,636230390909435236
67,636230390909605186
67,636230390909770500
67,636230390909940411
67,636230390910105717
67,636230390910270830
67,636230390910440771
67,636230390910606077
67,636230390910771010
67,636230390910941140
67,636230390911106424
67,636230390911276365
67,636230390911441662
67,636230390911606609
67,636230390911776905
67,636230390911942023
67,636230390912111955
67,636230390912277257
67,636230390912442207
67,636230390912612324
67,636230390912777437
67,636230390912942584
67,636230390913112684
67,636230390913277789
67,636230390913442923
67,636230390913613207
67,636230390913778328
67,636230390913948274
67,636230390914113383
67,636230390914278496
67,636230390914448801
67,636230390914613764
67,636230390914778865
67,636230390914948973
67,636230390915114300
67,636230390915284211
67,636230390915449329
67,636230390915614463
67,636230390915784567
67,636230390915949697
67,636230390916119805
67,636230390916284927
67,636230390916450036
67,636230390916620174
67,636230390916785291
67,636230390916950413
67,636230390917120701
67,636230390917285634
67,636230390917455768
67,636230390917621061
67,636230390917786007
67,636230390917956120
67,636230390918121413
67,636230390918286350
67,636230390918456651
67,636230390918621768
67,636230390918791710
67,636230390918956823
67,636230390919121940
67,636230390919292198
67,636230390919457196
67,636230390919622313
67,636230390919792609
67,636230390919957727
67,636230390920127655
67,636230390920292786
67,636230390920458078
67,636230390920628024
67,636230390920793308
67,636230390920958263
67,636230390921128380
67,636230390921293489
67,636230390921463610
67,636230390921628907
67,636230390921794024
67,636230390921964149
67,636230390922129267
67,636230390922299200
67,636230390922464334
67,636230390922629618
67,636230390922799568
67,636230390922964861
67,636230390923129790
67,636230390923300335
67,636230390923465649
67,636230390923630770
67,636230390923800690
67,636230390923965804
67,636230390924135916
67,636230390924301051
67,636230390924466164
67,636230390924636280
67,636230390924801406
67,636230390924966507
67,636230390925136636
67,636230390925301758
67,636230390925471866
67,636230390925637189
67,636230390925802135
67,636230390925972222
67,636230390926137343
67,636230390926302457
67,636230390926472603
67,636230390926637708
67,636230390926807816
67,636230390926973126
67,636230390927138072
67,636230390927308180
67,636230390927473477
67,636230390927638419
67,636230390927808712
67,636230390927973829
67,636230390928143770
67,636230390928309072
67,636230390928474185
67,636230390928644267
67,636230390928809239
67,636230390928974545
67,636230390929144495
68,636230390929309595
68,636230390929479725
68,636230390929645017
68,636230390929810139
68,636230390929980076
68,636230390930145373
68,636230390930310311
68,636230390930480428
68,636230390930645549
68,636230390930815666
68,636230390930980792
68,636230390931146085
68,636230390931316210
68,636230390931481156
68,636230390931651265
68,636230390931816562
68,636230390931981683
68,636230390932151633
68,636230390932316947
68,636230390932481868
68,636230390932651989
68,636230390932817094
68,636230390932987210
68,636230390933152345
68,636230390933317445
68,636230390933487575
68,636230390933652688
68,636230390933817985
68,636230390933987939
68,636230390934153056
68,636230390934323165
68,636230390934488295
68,636230390934653583
68,636230390934823529
68,636230390934988638
68,636230390935153943
68,636230390935324060
68,636230390935489006
68,636230390935659110
68,636230390935824232
68,636230390935989349
68,636230390936159470
68,636230390936324588
68,636230390936489889
68,636230390936659839
68,636230390936824956
68,636230390936995065
68,636230390937160199
68,636230390937325299
68,636230390937495467
68,636230390937660551
68,636230390937825672
68,636230390937995772
68,636230390938161073
68,636230390938331010
68,636230390938496324
68,636230390938661429
68,636230390938831366
68,636230390938996488
68,636230390939161618
68,636230390939331730
68,636230390939497032
68,636230390939666965
68,636230390939832078
68,636230390939997392
68,636230390940167320
68,636230390940332438
68,636230390940497743
68,636230390940667693
68,636230390940832811
68,636230390941002915
68,636230390941168028
68,636230390941333162
68,636230390941503454
68,636230390941668401
68,636230390941838504
68,636230390942003814
68,636230390942168932
68,636230390942338873
68,636230390942503986
68,636230390942669117
68,636230390942839233
68,636230390943004338
68,636230390943174455
68,636230390943339576
68,636230390943504698
68,636230390943674810
68,636230390943839945
68,636230390944005242
68,636230390944175170
68,636230390944340301
68,636230390944510409
68,636230390944675539
68,636230390944840828
68,636230390945010773
68,636230390945176066
68,636230390945341188
68,636230390945511300
68,636230390945676255
68,636230390945846355
68,636230390946011656
68,636230390946176628
68,636230390946346719
68,636230390946511845
68,636230390946677138
68,636230390946847079
68,636230390947012196
68,636230390947182309
68,636230390947347439
68,636230390947512728
68,636230390947682673
68,636230390947847795
68,636230390948017899
68,636230390948183020
68,636230390948348138
68,636230390948518263
68,636230390948683376
68,636230390948848502
68,636230390949028617
68,636230390949183732
68,636230390949348862
68,636230390949518983
68,636230390949684096
68,636230390949854217
68,636230390950019506
68,636230390950184456
68,636230390950354560
68,636230390950519682
68,636230390950684804
68,636230390950854942
68,636230390951020068
68,636230390951190159
68,636230390951355293
68,636230390951520411
68,636230390951690515
68,636230390951855645
68,636230390952025749
68,636230390952190883
68,636230390952356172
68,636230390952526117
68,636230390952691226
68,636230390952856348
68,636230390953026670
68,636230390953191787
68,636230390953356708
68,636230390953527009
68,636230390953692122
68,636230390953862055
68,636230390954027356
68,636230390954192302
68,636230390954362415
68,636230390954527716
68,636230390954697649
68,636230390954862950
68,636230390955027896
68,636230390955198009
68,636230390955363310
68,636230390955528257
68,636230390955698377
68,636230390955863666
68,636230390956033612
68,636230390956198900
68,636230390956364385
68,636230390956534322
68,636230390956699461
68,636230390956864587
68,636230390957034682
68,636230390957199800
68,636230390957365118
68,636230390957535051
68,636230390957700335
68,636230390957870272
68,636230390958035394
68,636230390958200691
68,636230390958370641
68,636230390958535746
68,636230390958700872
68,636230390958871181
68,636230390959036110
68,636230390959206222
68,636230390959371361
68,636230390959536457
68,636230390959706766
68,636230390959871880
68,636230390960037001
68,636230390960207118
68,636230390960372235
68,636230390960542177
68,636230390960707478
68,636230390960872424
68,636230390961042532
68,636230390961207680
68,636230390961377767
68,636230390961542905
68,636230390961708019
68,636230390961878140
68,636230390962043244
68,636230390962208541
68,636230390962378671
68,636230390962543596
68,636230390962708905
68,636230390962879018
68,636230390963043956
68,636230390963214085
68,636230390963379198
68,636230390963544495
68,636230390963714450
68,636230390963879755
68,636230390964049671
68,636230390964214788
68,636230390964379901
68,636230390964550040
68,636230390964715332
68,636230390964880274
68,636230390965050562
68,636230390965215508
68,636230390965380622
68,636230390965550939
68,636230390965716070
68,636230390965885981
68,636230390966051094
68,636230390966216224
68,636230390966386371
68,636230390966551463
68,636230390966721571
68,636230390966886701
68,636230390967051985
68,636230390967221935
68,636230390967387061
68,636230390967552179
68,636230390967722278
68,636230390967887400
68,636230390968057521
68,636230390968222664
68,636230390968387756
68,636230390968557881
68,636230390968722994
68,636230390968888120
68,636230390969058233
68,636230390969223367
68,636230390969393471
68,636230390969558588
68,636230390969723719
68,636230390969893827
68,636230390970059162
68,636230390970224263
