73,636231107176236522
73,636231107176346588
73,636231107176451646
73,636231107176561870
73,636231107176666929
73,636231107176771808
73,636231107176881882
73,636231107176986941
73,636231107177092166
73,636231107177197229
73,636231107177302134
73,636231107177407179
73,636231107177512405
73,636231107177617284
73,636231107177722526
73,636231107177827397
73,636231107177927636
73,636231107178032725
73,636231107178142782
73,636231107178247811
73,636231107178352685
73,636231107178457928
73,636231107178567993
73,636231107178672881
73,636231107178777927
73,636231107178883169
73,636231107178988044
73,636231107179088279
73,636231107179193338
73,636231107179298396
73,636231107179403451
73,636231107179508355
73,636231107179613393
73,636231107179718648
73,636231107179823527
73,636231107179928748
73,636231107180038814
73,636231107180143714
73,636231107180248927
73,636231107180354007
73,636231107180458886
73,636231107180563936
73,636231107180668998
73,636231107180774219
73,636231107180879278
73,636231107180984337
73,636231107181094407
73,636231107181199457
73,636231107181304515
73,636231107181409578
73,636231107181514453
73,636231107181619700
73,636231107181724570
73,636231107181829650
73,636231107181934709
73,636231107182039930
73,636231107182144821
73,636231107182249863
73,636231107182359937
73,636231107182465167
73,636231107182570042
73,636231107182675100
73,636231107182780172
73,636231107182885213
73,636231107182995291
73,636231107183100354
73,636231107183210403
73,636231107183315637
73,636231107183425527
73,636231107183530761
73,636231107183635636
73,636231107183740711
73,636231107183845817
73,636231107183950816
73,636231107184055874
73,636231107184165936
73,636231107184266171
73,636231107184371251
73,636231107184476105
73,636231107184581184
73,636231107184686235
73,636231107184791460
73,636231107184896335
73,636231107185006413
73,636231107185111467
73,636231107185221516
73,636231107185326754
73,636231107185431826
73,636231107185536696
73,636231107185641943
73,636231107185746993
73,636231107185851872
73,636231107185956926
73,636231107186061993
73,636231107186167060
73,636231107186272290
73,636231107186377374
73,636231107186487243
73,636231107186587496
73,636231107186692353
73,636231107186797420
73,636231107186902475
73,636231107187007512
73,636231107187112571
73,636231107187217625
73,636231107187327691
73,636231107187432749
73,636231107187542811
73,636231107187647869
73,636231107187753124
73,636231107187857995
73,636231107187963049
73,636231107188068108
73,636231107188173534
73,636231107188278584
73,636231107188383459
73,636231107188488706
73,636231107188593597
73,636231107188698818
73,636231107188803697
73,636231107188908777
73,636231107189013810
73,636231107189119057
73,636231107189224116
73,636231107189329179
73,636231107189434233
73,636231107189539300
73,636231107189644183
73,636231107189754416
73,636231107189859303
73,636231107189964524
73,636231107190069591
73,636231107190174650
73,636231107190279568
73,636231107190384618
73,636231107190489847
73,636231107190594713
73,636231107190704771
73,636231107190814832
73,636231107190915080
73,636231107191020113
73,636231107191130179
73,636231107191235071
73,636231107191340300
73,636231107191445359
73,636231107191550417
73,636231107191655476
73,636231107191760363
73,636231107191865422
73,636231107191970643
73,636231107192075702
73,636231107192180581
73,636231107192285652
73,636231107192390702
73,636231107192500952
73,636231107192605835
73,636231107192710876
73,636231107192816123
73,636231107192920994
73,636231107193026065
73,636231107193136126
73,636231107193241352
73,636231107193346231
73,636231107193451289
73,636231107193556365
73,636231107193661424
73,636231107193766653
73,636231107193871524
73,636231107193976775
73,636231107194081842
73,636231107194186704
73,636231107194286943
73,636231107194392011
73,636231107194496877
73,636231107194601948
73,636231107194707011
73,636231107194812053
73,636231107194917107
73,636231107195022183
73,636231107195127241
73,636231107195237285
73,636231107195342558
73,636231107195447591
73,636231107195552649
73,636231107195662715
73,636231107195767581
73,636231107195877660
73,636231107195982727
73,636231107196087760
73,636231107196197821
73,636231107196302901
73,636231107196403132
73,636231107196508003
73,636231107196613074
73,636231107196718120
73,636231107196828177
73,636231107196933248
73,636231107197038290
73,636231107197143537
73,636231107197248625
73,636231107197353466
73,636231107197458537
73,636231107197563583
73,636231107197668825
73,636231107197773884
73,636231107197878947
73,636231107197984001
73,636231107198089060
73,636231107198198937
73,636231107198304000
73,636231107198409059
73,636231107198514117
73,636231107198619176
73,636231107198724230
73,636231107198829485
73,636231107198939350
73,636231107199049625
73,636231107199154487
73,636231107199259529
73,636231107199364591
73,636231107199469825
73,636231107199574884
73,636231107199679763
73,636231107199785005
73,636231107199890073
73,636231107199994956
73,636231107200100010
73,636231107200205056
73,636231107200310303
73,636231107200415361
73,636231107200520445
73,636231107200625299
73,636231107200730353
73,636231107200835407
73,636231107200940650
73,636231107201045550
73,636231107201150622
73,636231107201255834
73,636231107201360889
73,636231107201465785
73,636231107201575820
73,636231107201681059
73,636231107201785942
73,636231107201891000
73,636231107201996063
73,636231107202096299
73,636231107202201362
73,636231107202306249
73,636231107202411303
73,636231107202516542
73,636231107202621416
73,636231107202721647
73,636231107202826544
73,636231107202931760
73,636231107203036819
73,636231107203141698
73,636231107203246752
73,636231107203352033
73,636231107203456869
73,636231107203562120
73,636231107203672173
73,636231107203777044
73,636231107203882295
73,636231107203987349
73,636231107204097244
73,636231107204202289
73,636231107204307528
73,636231107204412424
73,636231107204522643
73,636231107204627702
73,636231107204732589
73,636231107204837644
73,636231107204942702
73,636231107205042955
73,636231107205152832
73,636231107205257874
73,636231107205362950
73,636231107205467991
73,636231107205573233
73,636231107205683295
73,636231107205788353
73,636231107205893228
73,636231107205998308
73,636231107206103362
73,636231107206208412
73,636231107206313651
73,636231107206423541
73,636231107206528779
73,636231107206633641
73,636231107206743745
73,636231107206848761
73,636231107206953837
73,636231107207058883
73,636231107207163958
73,636231107207268995
73,636231107207379074
73,636231107207484188
73,636231107207589178
73,636231107207699453
73,636231107207804315
73,636231107207909357
73,636231107208014595
73,636231107208119654
73,636231107208224541
73,636231107208329587
73,636231107208434658
73,636231107208539708
73,636231107208644942
73,636231107208749838
73,636231107208855068
73,636231107208960135
73,636231107209065001
73,636231107209170064
73,636231107209275136
73,636231107209380361
73,636231107209485231
73,636231107209590482
73,636231107209695571
73,636231107209800407
73,636231107209905466
73,636231107210010721
73,636231107210115604
73,636231107210220834
73,636231107210325888
73,636231107210430759
73,636231107210535839
73,636231107210641064
73,636231107210745939
73,636231107210855992
73,636231107210961059
73,636231107211066117
73,636231107211176209
73,636231107211281250
73,636231107211391299
73,636231107211496362
73,636231107211601412
73,636231107211706479
73,636231107211811529
73,636231107211916780
73,636231107212021838
73,636231107212126730
73,636231107212231763
73,636231107212337006
73,636231107212441897
73,636231107212547123
73,636231107212652019
73,636231107212757236
73,636231107212862115
73,636231107212967353
73,636231107213072245
73,636231107213177474
73,636231107213282349
73,636231107213387416
73,636231107213487647
73,636231107213592522
73,636231107213697769
73,636231107213802656
73,636231107213907882
73,636231107214012945
73,636231107214123006
73,636231107214227881
73,636231107214333119
73,636231107214438011
73,636231107214543048
73,636231107214648295
73,636231107214753353
73,636231107214858425
73,636231107214968477
73,636231107215073365
73,636231107215178428
73,636231107215283469
73,636231107215388566
73,636231107215493595
73,636231107215598641
73,636231107215703708
73,636231107215808762
73,636231107215919025
73,636231107216023895
73,636231107216128937
73,636231107216233999
73,636231107216339242
73,636231107216444108
73,636231107216549192
73,636231107216654418
73,636231107216764291
73,636231107216869533
73,636231107216979424
73,636231107217089665
73,636231107217194715
73,636231107217299611
73,636231107217404648
73,636231107217509724
73,636231107217619777
73,636231107217724831
73,636231107217829885
73,636231107217934969
73,636231107218040019
73,636231107218145065
73,636231107218250303
73,636231107218355362
73,636231107218460258
73,636231107218565479
73,636231107218670371
73,636231107218775417
73,636231107218880651
73,636231107218990554
73,636231107219095591
73,636231107219200667
73,636231107219305708
73,636231107219410780
73,636231107219520832
73,636231107219625904
73,636231107219730950
73,636231107219841020
73,636231107219946082
73,636231107220051141
73,636231107220161202
73,636231107220271247
73,636231107220376489
73,636231107220481548
73,636231107220586606
73,636231107220691481
73,636231107220796535
73,636231107220901786
73,636231107221006841
73,636231107221111711
73,636231107221216791
73,636231107221327019
73,636231107221436910
73,636231107221542139
73,636231107221647035
73,636231107221752081
73,636231107221857131
73,636231107221962207
73,636231107222067466
73,636231107222172491
73,636231107222277365
73,636231107222382604
73,636231107222492498
73,636231107222597732
73,636231107222702624
73,636231107222807849
73,636231107222908983
73,636231107223014041
73,636231107223118929
73,636231107223224158
73,636231107223329208
73,636231107223434105
73,636231107223539146
73,636231107223644205
73,636231107223749327
73,636231107223854510
73,636231107223959380
73,636231107224064623
73,636231107224169515
73,636231107224269737
73,636231107224374616
73,636231107224479671
73,636231107224584913
73,636231107224689801
73,636231107224799849
73,636231107224905104
73,636231107225009966
73,636231107225115025
73,636231107225220079
73,636231107225325155
73,636231107225430214
73,636231107225535447
73,636231107225640331
73,636231107225745376
73,636231107225850482
73,636231107225955682
73,636231107226065559
73,636231107226170614
73,636231107226275681
73,636231107226380761
73,636231107226490792
73,636231107226595872
73,636231107226705912
73,636231107226810996
73,636231107226916217
73,636231107227021088
73,636231107227126159
73,636231107227231385
73,636231107227336448
73,636231107227441339
73,636231107227546569
73,636231107227651636
73,636231107227756682
73,636231107227861741
73,636231107227964417
73,636231107228065542
73,636231107228170498
73,636231107228273663
73,636231107228374792
73,636231107228475117
73,636231107228579761
73,636231107228681322
73,636231107228782134
73,636231107228883772
73,636231107228984910
73,636231107229085470
73,636231107229187869
73,636231107229289062
73,636231107229389742
73,636231107229490884
73,636231107229596571
73,636231107229699389
73,636231107229803730
73,636231107229905004
73,636231107230005941
73,636231107230107061
73,636231107230209221
73,636231107230313210
73,636231107230415464
73,636231107230516306
73,636231107230618851
73,636231107230719723
73,636231107230820574
73,636231107230921802
73,636231107231025330
73,636231107231131008
73,636231107231231765
73,636231107231337145
73,636231107231438312
73,636231107231539368
73,636231107231640395
73,636231107231749811
73,636231107231855656
73,636231107231956404
73,636231107232057392
73,636231107232158055
73,636231107232258821
73,636231107232360390
73,636231107232461464
73,636231107232562867
73,636231107232673796
73,636231107232774232
73,636231107232877640
74,636231107232978966
74,636231107233080531
74,636231107233181340
74,636231107233282430
74,636231107233383487
74,636231107233488195
74,636231107233589781
74,636231107233693903
74,636231107233798975
74,636231107233903888
74,636231107234013937
74,636231107234118999
74,636231107234229074
74,636231107234334128
74,636231107234439191
74,636231107234549231
74,636231107234654298
74,636231107234759369
74,636231107234864424
74,636231107234965715
74,636231107235068559
74,636231107235170889
74,636231107235275935
74,636231107235378257
74,636231107235487245
74,636231107235589995
74,636231107235695225
74,636231107235796268
74,636231107235901327
74,636231107236001554
74,636231107236101990
74,636231107236207237
74,636231107236312462
74,636231107236417341
74,636231107236522395
74,636231107236632461
74,636231107236737571
74,636231107236842758
74,636231107236947816
74,636231107237052896
74,636231107237162765
74,636231107237263304
74,636231107237363561
74,636231107237468611
74,636231107237573503
74,636231107237678737
74,636231107237783624
74,636231107237888662
74,636231107237998753
74,636231107238103978
74,636231107238214035
74,636231107238319085
74,636231107238423977
74,636231107238529066
74,636231107238634094
74,636231107238739166
74,636231107238844383
74,636231107238949445
74,636231107239054312
74,636231107239159588
74,636231107239264467
74,636231107239369504
74,636231107239474567
74,636231107239579605
74,636231107239684851
74,636231107239789730
74,636231107239894806
74,636231107239999865
74,636231107240105090
74,636231107240210144
74,636231107240315032
74,636231107240420261
74,636231107240525136
74,636231107240625376
74,636231107240730255
74,636231107240835313
74,636231107240940381
74,636231107241050459
74,636231107241155488
74,636231107241260563
74,636231107241365622
74,636231107241470668
74,636231107241575722
74,636231107241680969
74,636231107241786023
74,636231107241890911
74,636231107242001143
74,636231107242111021
74,636231107242216263
74,636231107242321326
74,636231107242426380
74,636231107242531259
74,636231107242636514
74,636231107242746405
74,636231107242851617
74,636231107242956501
74,636231107243061551
74,636231107243171834
74,636231107243276884
74,636231107243381926
74,636231107243486788
74,636231107243591859
74,636231107243696905
74,636231107243807155
74,636231107243912175
74,636231107244017237
74,636231107244127333
74,636231107244232221
74,636231107244332443
74,636231107244437502
74,636231107244542389
74,636231107244647615
74,636231107244752682
74,636231107244857561
74,636231107244962615
74,636231107245067687
74,636231107245172741
74,636231107245277799
74,636231107245382841
74,636231107245487917
74,636231107245593146
74,636231107245698034
74,636231107245798261
74,636231107245903319
74,636231107246008438
74,636231107246118499
74,636231107246223378
74,636231107246328621
74,636231107246433495
74,636231107246538567
74,636231107246643796
74,636231107246748671
74,636231107246853918
74,636231107246958814
74,636231107247064026
74,636231107247168927
74,636231107247273964
74,636231107247379031
74,636231107247484081
74,636231107247589319
74,636231107247694194
74,636231107247799266
74,636231107247904504
74,636231107248009554
74,636231107248114428
74,636231107248219491
74,636231107248319761
74,636231107248424614
74,636231107248529677
74,636231107248634719
74,636231107248739790
74,636231107248844849
74,636231107248950100
74,636231107249054953
74,636231107249160029
74,636231107249265254
74,636231107249370146
73,636231107249475230
73,636231107249580434
73,636231107249685334
73,636231107249790384
73,636231107249895443
73,636231107250000668
73,636231107250105535
73,636231107250210645
73,636231107250320847
73,636231107250425901
73,636231107250530789
73,636231107250636018
73,636231107250740893
73,636231107250845969
73,636231107250956017
73,636231107251061089
73,636231107251161311
73,636231107251271202
73,636231107251376273
73,636231107251481310
73,636231107251586561
73,636231107251696452
73,636231107251801498
73,636231107251901724
73,636231107252006804
73,636231107252111662
73,636231107252216896
73,636231107252326778
73,636231107252431836
73,636231107252537079
73,636231107252642142
73,636231107252747196
73,636231107252857257
73,636231107252962316
73,636231107253072210
73,636231107253177436
73,636231107253282315
73,636231107253387570
73,636231107253492436
73,636231107253597670
73,636231107253702545
73,636231107253807608
73,636231107253912679
73,636231107254022937
73,636231107254127791
73,636231107254228022
73,636231107254333080
73,636231107254437972
73,636231107254543202
73,636231107254648256
73,636231107254753131
73,636231107254863205
73,636231107254968439
73,636231107255073493
73,636231107255183559
73,636231107255288438
73,636231107255393505
73,636231107255503558
73,636231107255608608
73,636231107255713880
73,636231107255818725
73,636231107255923968
73,636231107256029026
73,636231107256133914
73,636231107256238981
73,636231107256344210
73,636231107256449098
73,636231107256554281
73,636231107256659378
73,636231107256764269
73,636231107256874327
73,636231107256979449
73,636231107257084444
73,636231107257189515
73,636231107257294552
73,636231107257399795
73,636231107257504670
73,636231107257609728
73,636231107257719785
73,636231107257824861
73,636231107257930086
73,636231107258040169
73,636231107258145228
73,636231107258250094
73,636231107258360160
73,636231107258465385
73,636231107258570268
73,636231107258675318
73,636231107258780561
73,636231107258885435
73,636231107258990682
73,636231107259100555
73,636231107259210617
73,636231107259315675
73,636231107259420734
73,636231107259525797
73,636231107259635880
73,636231107259740912
73,636231107259846155
73,636231107259951218
73,636231107260056306
73,636231107260161147
73,636231107260266205
73,636231107260371277
73,636231107260476506
73,636231107260581385
73,636231107260691455
73,636231107260796518
73,636231107260901756
73,636231107261006802
73,636231107261116701
73,636231107261221922
73,636231107261326818
73,636231107261431877
73,636231107261537102
73,636231107261641973
73,636231107261747215
73,636231107261852103
73,636231107261957166
73,636231107262062391
73,636231107262167479
73,636231107262272328
73,636231107262377592
73,636231107262482651
73,636231107262587517
73,636231107262692567
73,636231107262802641
73,636231107262907713
73,636231107263012925
73,636231107263117796
73,636231107263222871
73,636231107263328097
73,636231107263433155
73,636231107263538214
73,636231107263643089
73,636231107263748331
73,636231107263853210
73,636231107263958282
73,636231107264063349
73,636231107264168399
73,636231107264273637
73,636231107264378713
73,636231107264483793
73,636231107264588620
73,636231107264693696
73,636231107264803749
73,636231107264908799
73,636231107265014046
73,636231107265118929
73,636231107265229157
73,636231107265334049
73,636231107265439103
73,636231107265544350
73,636231107265649207
73,636231107265754283
73,636231107265859342
73,636231107265964400
73,636231107266069455
73,636231107266174518
73,636231107266279580
73,636231107266384836
73,636231107266489698
73,636231107266594735
73,636231107266699793
73,636231107266805036
73,636231107266910103
73,636231107267014969
73,636231107267120041
73,636231107267225270
73,636231107267330337
73,636231107267435216
73,636231107267540450
73,636231107267645509
73,636231107267750396
73,636231107267855626
73,636231107267960496
73,636231107268065564
73,636231107268165795
73,636231107268270695
73,636231107268375749
73,636231107268480804
73,636231107268585845
73,636231107268690925
73,636231107268796168
73,636231107268906212
73,636231107269016269
73,636231107269121332
73,636231107269226386
73,636231107269331449
73,636231107269436332
73,636231107269541382
73,636231107269646454
73,636231107269751495
73,636231107269856738
73,636231107269961634
73,636231107270066692
73,636231107270171914
73,636231107270276793
73,636231107270386871
73,636231107270491908
73,636231107270596988
73,636231107270702235
73,636231107270807097
73,636231107270912143
73,636231107271017223
73,636231107271122444
73,636231107271227502
73,636231107271332377
73,636231107271437440
73,636231107271542498
73,636231107271647737
73,636231107271757614
73,636231107271862861
73,636231107271967744
73,636231107272072807
73,636231107272178041
73,636231107272287914
73,636231107272392986
73,636231107272498031
73,636231107272603103
73,636231107272708148
73,636231107272813425
73,636231107272918364
73,636231107273023504
73,636231107273128379
73,636231107273233625
73,636231107273343516
73,636231107273453560
73,636231107273558802
73,636231107273663677
73,636231107273768928
73,636231107273873811
73,636231107273979037
73,636231107274084095
73,636231107274189158
73,636231107274294046
73,636231107274399104
73,636231107274509157
73,636231107274614404
73,636231107274719274
73,636231107274824337
73,636231107274929567
73,636231107275034647
73,636231107275139714
73,636231107275244764
73,636231107275354834
73,636231107275459892
73,636231107275564930
73,636231107275669984
73,636231107275774872
73,636231107275879913
73,636231107275985156
73,636231107276090052
73,636231107276195093
73,636231107276300340
73,636231107276405206
73,636231107276510269
73,636231107276610504
73,636231107276715409
73,636231107276820463
73,636231107276925509
73,636231107277030786
73,636231107277135613
73,636231107277240672
73,636231107277345743
73,636231107277450982
73,636231107277555865
73,636231107277661090
73,636231107277766149
73,636231107277871207
73,636231107277976266
73,636231107278081329
73,636231107278186387
73,636231107278291446
73,636231107278396509
73,636231107278501388
73,636231107278606617
73,636231107278711501
73,636231107278816572
73,636231107278926608
73,636231107279036691
73,636231107279141736
73,636231107279246979
73,636231107279352037
73,636231107279456912
73,636231107279562150
73,636231107279667051
73,636231107279777270
73,636231107279882162
73,636231107279992206
73,636231107280097278
73,636231107280202507
73,636231107280312406
73,636231107280417461
73,636231107280527689
73,636231107280632568
73,636231107280737635
73,636231107280842694
73,636231107280942920
73,636231107281053020
73,636231107281157857
73,636231107281263099
73,636231107281367974
73,636231107281473037
73,636231107281578104
73,636231107281688349
73,636231107281793228
73,636231107281903272
73,636231107282008515
73,636231107282113402
73,636231107282218465
73,636231107282323699
73,636231107282428749
73,636231107282533624
73,636231107282638687
72,636231107282743745
72,636231107282848808
72,636231107282953884
72,636231107283058925
72,636231107283163988
72,636231107283269055
72,636231107283374311
72,636231107283484154
72,636231107283594232
72,636231107283699458
72,636231107283804350
72,636231107283909583
72,636231107284014462
72,636231107284124515
72,636231107284234761
72,636231107284344822
72,636231107284449697
72,636231107284559749
72,636231107284659993
72,636231107284764872
72,636231107284870111
72,636231107284974990
72,636231107285075225
72,636231107285180100
72,636231107285285171
72,636231107285390243
72,636231107285495288
72,636231107285600351
72,636231107285710579
72,636231107285815676
72,636231107285920530
72,636231107286025755
72,636231107286130643
72,636231107286235872
72,636231107286340760
72,636231107286445823
72,636231107286551052
72,636231107286655927
72,636231107286761169
72,636231107286866057
72,636231107286971103
72,636231107287076341
72,636231107287181224
72,636231107287281455
72,636231107287386330
72,636231107287491410
72,636231107287601467
72,636231107287706526
72,636231107287811760
72,636231107287916639
72,636231107288021877
72,636231107288126747
72,636231107288231985
72,636231107288336882
72,636231107288441919
72,636231107288546999
72,636231107288657039
72,636231107288762281
72,636231107288867173
72,636231107288972232
72,636231107289077457
72,636231107289182357
72,636231107289287412
72,636231107289392449
72,636231107289497726
72,636231107289602784
72,636231107289707637
72,636231107289812696
72,636231107289917926
72,636231107290027820
72,636231107290132862
72,636231107290238109
72,636231107290342983
72,636231107290448226
72,636231107290553113
72,636231107290658172
72,636231107290763406
72,636231107290868289
72,636231107290973519
72,636231107291078406
72,636231107291183452
72,636231107291288690
72,636231107291393620
72,636231107291498636
72,636231107291603870
72,636231107291713932
72,636231107291818802
72,636231107291928885
72,636231107292039109
72,636231107292148986
72,636231107292254229
72,636231107292359287
72,636231107292469186
72,636231107292574424
72,636231107292679299
72,636231107292784524
72,636231107292889420
72,636231107292994462
72,636231107293099700
72,636231107293204596
72,636231107293309817
72,636231107293414889
72,636231107293519772
72,636231107293624818
72,636231107293729885
72,636231107293835106
72,636231107293940169
72,636231107294045236
72,636231107294150290
72,636231107294255178
72,636231107294360403
72,636231107294465466
72,636231107294570520
72,636231107294675579
72,636231107294780638
72,636231107294885512
72,636231107294990597
72,636231107295095818
72,636231107295200876
72,636231107295305751
72,636231107295410810
72,636231107295516048
72,636231107295620931
72,636231107295726169
72,636231107295831040
72,636231107295936282
72,636231107296041375
72,636231107296151428
72,636231107296256482
72,636231107296361545
72,636231107296466398
72,636231107296571636
72,636231107296676511
72,636231107296786577
72,636231107296891811
72,636231107296996878
72,636231107297106939
72,636231107297212002
72,636231107297321888
72,636231107297427114
72,636231107297531988
72,636231107297642050
72,636231107297747134
72,636231107297852192
72,636231107297952406
72,636231107298057285
72,636231107298162545
72,636231107298267458
72,636231107298372675
72,636231107298477729
72,636231107298582762
72,636231107298687663
72,636231107298792875
72,636231107298897938
72,636231107299002813
72,636231107299108051
72,636231107299213110
72,636231107299317993
72,636231107299423235
72,636231107299528290
72,636231107299633177
72,636231107299738403
72,636231107299843290
72,636231107299943525
72,636231107300048580
72,636231107300153668
72,636231107300258513
72,636231107300363790
72,636231107300468643
72,636231107300573873
72,636231107300683746
72,636231107300788822
72,636231107300894051
72,636231107300998926
72,636231107301104173
72,636231107301209043
72,636231107301314097
72,636231107301419340
72,636231107301524424
72,636231107301629307
72,636231107301734520
72,636231107301844415
72,636231107301949460
72,636231107302059517
72,636231107302164589
72,636231107302269630
72,636231107302374689
72,636231107302479748
72,636231107302584990
72,636231107302689890
72,636231107302794940
72,636231107302900170
72,636231107303005058
72,636231107303110287
72,636231107303215162
72,636231107303325219
72,636231107303430278
72,636231107303535529
72,636231107303640395
72,636231107303745471
72,636231107303850516
72,636231107303960591
72,636231107304070643
72,636231107304175706
72,636231107304280940
72,636231107304385815
72,636231107304491074
72,636231107304596137
72,636231107304701008
72,636231107304806233
72,636231107304911108
72,636231107305016166
72,636231107305121413
72,636231107305226463
72,636231107305331338
72,636231107305436409
72,636231107305541455
72,636231107305646514
72,636231107305751760
72,636231107305856652
72,636231107305961715
72,636231107306066757
72,636231107306171832
72,636231107306277053
72,636231107306381937
72,636231107306487004
72,636231107306592263
72,636231107306697121
72,636231107306807366
72,636231107306912220
72,636231107307017278
72,636231107307122529
72,636231107307227468
72,636231107307332638
72,636231107307437696
72,636231107307542571
72,636231107307647651
72,636231107307752876
72,636231107307857931
72,636231107307962805
72,636231107308068052
72,636231107308178109
72,636231107308283005
72,636231107308388047
72,636231107308493289
72,636231107308598160
72,636231107308703436
72,636231107308808277
72,636231107308908555
72,636231107309013391
72,636231107309118638
72,636231107309223517
72,636231107309333587
72,636231107309438812
72,636231107309543871
72,636231107309648746
72,636231107309753920
72,636231107309863883
72,636231107309968924
72,636231107310073996
72,636231107310179041
72,636231107310284113
72,636231107310389163
72,636231107310494221
72,636231107310594457
72,636231107310699349
72,636231107310804595
72,636231107310909633
72,636231107311014713
72,636231107311119583
72,636231107311224642
72,636231107311329687
72,636231107311434955
72,636231107311539988
72,636231107311645043
72,636231107311750106
72,636231107311854976
72,636231107311960214
72,636231107312065093
72,636231107312170336
72,636231107312275399
72,636231107312380286
72,636231107312485332
72,636231107312590395
72,636231107312695641
72,636231107312805523
72,636231107312910569
72,636231107313015816
72,636231107313120870
72,636231107313225758
72,636231107313330803
72,636231107313435858
72,636231107313540938
72,636231107313646159
72,636231107313751217
72,636231107313856113
72,636231107313961335
72,636231107314066222
72,636231107314171268
72,636231107314276348
72,636231107314381385
72,636231107314486448
72,636231107314591686
72,636231107314696569
72,636231107314806810
72,636231107314911681
72,636231107315016936
72,636231107315121930
72,636231107315226874
72,636231107315331932
72,636231107315437162
72,636231107315542037
72,636231107315647112
72,636231107315752167
72,636231107315857392
72,636231107315962451
72,636231107316067513
72,636231107316172401
72,636231107316277626
72,636231107316382685
72,636231107316487585
72,636231107316592802
72,636231107316702688
72,636231107316807760
72,636231107316912981
72,636231107317017872
72,636231107317122940
72,636231107317228156
72,636231107317333219
72,636231107317438278
72,636231107317543144
72,636231107317648224
72,636231107317753454
72,636231107317858337
72,636231107317963383
72,636231107318068629
72,636231107318173504
72,636231107318278558
72,636231107318383630
72,636231107318493678
72,636231107318598741
72,636231107318703988
72,636231107318808854
72,636231107318913934
72,636231107319018971
72,636231107319124051
72,636231107319229307
72,636231107319339163
72,636231107319444209
72,636231107319549267
72,636231107319654518
72,636231107319759577
72,636231107319869450
72,636231107319974526
72,636231107320079584
72,636231107320184626
72,636231107320289868
72,636231107320394927
72,636231107320499981
72,636231107320605040
72,636231107320710103
72,636231107320815183
72,636231107320920036
72,636231107321025090
72,636231107321130183
72,636231107321240214
72,636231107321345286
72,636231107321450327
72,636231107321555386
72,636231107321660462
72,636231107321770694
72,636231107321875573
72,636231107321980649
72,636231107322085874
72,636231107322190740
72,636231107322295996
72,636231107322406057
72,636231107322515939
72,636231107322620980
72,636231107322726223
72,636231107322831110
72,636231107322936160
72,636231107323041227
72,636231107323146277
72,636231107323251349
72,636231107323361397
72,636231107323471660
72,636231107323581721
72,636231107323686574
72,636231107323791633
72,636231107323896692
72,636231107324006945
72,636231107324116844
72,636231107324222057
72,636231107324327120
72,636231107324431994
72,636231107324537049
72,636231107324642295
72,636231107324747183
72,636231107324852408
72,636231107324962290
72,636231107325067349
72,636231107325172407
72,636231107325277479
72,636231107325382542
72,636231107325487592
72,636231107325592650
72,636231107325697705
72,636231107325802763
72,636231107325907830
72,636231107326017887
72,636231107326118114
72,636231107326223177
72,636231107326328052
72,636231107326433123
72,636231107326538353
72,636231107326643240
72,636231107326753285
72,636231107326858536
72,636231107326963402
72,636231107327068478
72,636231107327173536
72,636231107327278591
72,636231107327383662
72,636231107327488721
72,636231107327593950
72,636231107327698829
72,636231107327804084
72,636231107327908942
72,636231107328019200
72,636231107328124053
72,636231107328229125
72,636231107328334166
72,636231107328439229
72,636231107328544472
72,636231107328649535
72,636231107328754418
72,636231107328859459
72,636231107328959703
72,636231107329064766
72,636231107329169637
72,636231107329274691
72,636231107329379749
72,636231107329484834
72,636231107329590055
72,636231107329694947
72,636231107329804999
72,636231107329910045
72,636231107330015313
72,636231107330120162
72,636231107330225234
72,636231107330330284
72,636231107330435526
72,636231107330540397
72,636231107330645639
72,636231107330755534
72,636231107330860580
72,636231107330965638
72,636231107331070710
72,636231107331175935
72,636231107331280844
72,636231107331386056
72,636231107331491115
72,636231107331601010
72,636231107331706085
72,636231107331806363
72,636231107331911225
72,636231107332016455
72,636231107332121505
72,636231107332226401
72,636231107332326624
72,636231107332431507
72,636231107332536566
72,636231107332641795
72,636231107332746854
72,636231107332851917
72,636231107332956804
72,636231107333061859
72,636231107333167092
72,636231107333271959
72,636231107333377227
72,636231107333482080
72,636231107333592150
72,636231107333702207
72,636231107333807471
72,636231107333912333
72,636231107334017584
72,636231107334127461
72,636231107334232499
72,636231107334337553
72,636231107334442624
72,636231107334547679
72,636231107334652733
72,636231107334757792
72,636231107334862867
72,636231107334973104
72,636231107335077970
72,636231107335188215
72,636231107335293107
72,636231107335403335
72,636231107335508394
72,636231107335613269
72,636231107335718336
72,636231107335823407
72,636231107335928461
72,636231107336033503
72,636231107336138771
72,636231107336243637
72,636231107336348696
72,636231107336453754
72,636231107336558813
72,636231107336664038
72,636231107336768930
72,636231107336874160
72,636231107336984213
72,636231107337089276
72,636231107337194334
72,636231107337299205
72,636231107337404447
72,636231107337509343
72,636231107337614389
72,636231107337714629
72,636231107337819533
72,636231107337929749
72,636231107338039622
72,636231107338139883
72,636231107338244753
72,636231107338349795
72,636231107338454853
72,636231107338559912
72,636231107338664966
72,636231107338770042
72,636231107338880095
72,636231107338985158
72,636231107339090225
72,636231107339195279
72,636231107339300325
72,636231107339405383
72,636231107339510630
72,636231107339615535
72,636231107339720559
72,636231107339825618
72,636231107339930681
72,636231107340035731
72,636231107340145809
72,636231107340251035
72,636231107340356123
72,636231107340461194
72,636231107340571243
72,636231107340676092
72,636231107340786337
72,636231107340891221
72,636231107340996271
72,636231107341101334
72,636231107341206388
72,636231107341311446
72,636231107341416505
72,636231107341521568
72,636231107341626622
72,636231107341731681
72,636231107341836739
72,636231107341941798
72,636231107342046857
72,636231107342151919
72,636231107342256982
72,636231107342362041
72,636231107342467095
72,636231107342572154
72,636231107342677212
72,636231107342782267
72,636231107342892332
72,636231107342997387
72,636231107343102441
72,636231107343207504
72,636231107343312567
72,636231107343417621
72,636231107343522680
72,636231107343627738
72,636231107343732797
72,636231107343837855
72,636231107343942914
72,636231107344047968
72,636231107344153035
72,636231107344258090
72,636231107344363153
72,636231107344468216
72,636231107344573270
72,636231107344678333
72,636231107344783391
72,636231107344888446
72,636231107344998503
72,636231107345103566
72,636231107345208620
72,636231107345313674
72,636231107345418741
72,636231107345528798
72,636231107345633866
72,636231107345738920
72,636231107345843974
72,636231107345949033
72,636231107346054100
72,636231107346159159
72,636231107346264213
72,636231107346369267
72,636231107346474326
72,636231107346579389
72,636231107346684443
72,636231107346794504
72,636231107346899567
72,636231107347004621
72,636231107347109684
72,636231107347214743
72,636231107347319802
72,636231107347424856
72,636231107347529919
72,636231107347634986
72,636231107347740036
72,636231107347850093
72,636231107347955156
72,636231107348060214
72,636231107348165273
72,636231107348270332
72,636231107348375386
72,636231107348480445
72,636231107348585512
72,636231107348690570
72,636231107348795620
72,636231107348900679
72,636231107349005737
72,636231107349110796
72,636231107349215855
72,636231107349320913
72,636231107349425976
72,636231107349531035
72,636231107349636098
72,636231107349746150
72,636231107349851218
72,636231107349956272
72,636231107350061326
72,636231107350166385
72,636231107350276446
72,636231107350381513
72,636231107350486568
72,636231107350591626
72,636231107350696685
72,636231107350801739
72,636231107350906798
72,636231107351011861
72,636231107351116919
72,636231107351221978
72,636231107351327036
72,636231107351432091
72,636231107351542156
72,636231107351647215
72,636231107351752278
72,636231107351857349
72,636231107351962395
72,636231107352067449
72,636231107352172504
72,636231107352282565
72,636231107352392626
72,636231107352497685
72,636231107352602748
72,636231107352707802
72,636231107352812861
72,636231107352923085
72,636231107353027981
72,636231107353138042
72,636231107353243105
72,636231107353348159
72,636231107353453218
72,636231107353558285
72,636231107353663335
72,636231107353768394
72,636231107353873469
72,636231107353978519
72,636231107354083574
72,636231107354188628
72,636231107354293691
72,636231107354398749
72,636231107354503804
72,636231107354608858
72,636231107354713921
72,636231107354818988
72,636231107354924042
72,636231107355029097
72,636231107355134164
72,636231107355239218
72,636231107355339454
72,636231107355444516
72,636231107355549387
72,636231107355654471
72,636231107355759500
72,636231107355864567
72,636231107355969638
72,636231107356074864
72,636231107356179760
72,636231107356284810
72,636231107356389856
72,636231107356495098
72,636231107356599973
72,636231107356700212
72,636231107356810090
72,636231107356915161
72,636231107357020391
72,636231107357125450
72,636231107357230508
72,636231107357335567
72,636231107357440441
72,636231107357545517
72,636231107357650571
72,636231107357755626
71,636231107357860864
71,636231107357965923
71,636231107358070793
71,636231107358180859
71,636231107358285951
71,636231107358395991
71,636231107358501041
71,636231107358601273
71,636231107358706152
71,636231107358811232
71,636231107358916465
71,636231107359021323
71,636231107359131384
71,636231107359236456
71,636231107359341506
71,636231107359451572
71,636231107359556622
71,636231107359661680
71,636231107359766747
71,636231107359871806
71,636231107359981859
71,636231107360086926
71,636231107360191980
71,636231107360297043
71,636231107360402089
71,636231107360507152
71,636231107360612210
71,636231107360717273
71,636231107360822340
71,636231107360927390
71,636231107361032445
71,636231107361137508
71,636231107361242562
71,636231107361347629
71,636231107361457682
71,636231107361562745
71,636231107361667803
71,636231107361772858
71,636231107361877916
71,636231107361982979
71,636231107362088042
71,636231107362193092
71,636231107362298159
71,636231107362403213
71,636231107362513275
71,636231107362618333
71,636231107362728391
71,636231107362833453
71,636231107362943519
71,636231107363048582
71,636231107363153636
71,636231107363258695
71,636231107363363758
71,636231107363468816
71,636231107363573862
71,636231107363679113
71,636231107363784159
71,636231107363889222
71,636231107363999099
71,636231107364104158
71,636231107364209212
71,636231107364314288
71,636231107364419334
71,636231107364524572
71,636231107364629673
71,636231107364734727
71,636231107364839683
71,636231107364944631
71,636231107365049689
71,636231107365154744
71,636231107365259802
71,636231107365364857
71,636231107365470103
71,636231107365575158
71,636231107365680032
71,636231107365785108
71,636231107365890346
71,636231107365995225
71,636231107366100459
71,636231107366210345
71,636231107366320394
71,636231107366425452
71,636231107366535518
71,636231107366640581
71,636231107366745631
71,636231107366850689
71,636231107366955752
71,636231107367065809
71,636231107367170872
71,636231107367275927
71,636231107367380990
71,636231107367486044
71,636231107367591107
71,636231107367696161
71,636231107367801220
71,636231107367906287
71,636231107368011341
71,636231107368116395
71,636231107368221458
71,636231107368326513
71,636231107368431571
71,636231107368536630
71,636231107368641688
71,636231107368746747
71,636231107368851805
71,636231107368956864
71,636231107369061927
71,636231107369166986
71,636231107369272044
71,636231107369377103
71,636231107369482161
71,636231107369587220
71,636231107369697277
71,636231107369802336
71,636231107369912397
71,636231107370022458
71,636231107370127517
71,636231107370232580
71,636231107370337638
71,636231107370442697
71,636231107370547751
71,636231107370652814
71,636231107370757868
71,636231107370862927
71,636231107370967994
71,636231107371073044
71,636231107371178111
71,636231107371283196
71,636231107371388224
71,636231107371493287
71,636231107371598337
71,636231107371703396
71,636231107371808459
71,636231107371913513
71,636231107372018572
71,636231107372128633
71,636231107372233696
71,636231107372343753
71,636231107372448816
71,636231107372553870
71,636231107372658929
71,636231107372763992
71,636231107372869046
71,636231107372974104
71,636231107373079172
71,636231107373184222
71,636231107373294283
71,636231107373399342
71,636231107373504404
71,636231107373609463
71,636231107373714526
71,636231107373819580
71,636231107373929646
71,636231107374034696
71,636231107374139759
71,636231107374244817
71,636231107374349872
71,636231107374454935
71,636231107374559993
71,636231107374665047
71,636231107374770110
71,636231107374875165
71,636231107374980223
71,636231107375085278
71,636231107375195343
71,636231107375300406
71,636231107375405465
71,636231107375510528
71,636231107375615582
71,636231107375720640
71,636231107375825708
71,636231107375930758
71,636231107376035816
71,636231107376140871
71,636231107376245929
71,636231107376355991
71,636231107376461049
71,636231107376566108
71,636231107376671166
71,636231107376776229
71,636231107376881288
71,636231107376986342
71,636231107377091401
71,636231107377196459
71,636231107377301526
71,636231107377406576
71,636231107377511639
71,636231107377621701
71,636231107377726755
71,636231107377831818
71,636231107377936881
71,636231107378041935
71,636231107378146994
71,636231107378252048
71,636231107378362114
71,636231107378467168
71,636231107378572226
71,636231107378677285
71,636231107378782344
71,636231107378887402
71,636231107378992469
71,636231107379097519
71,636231107379202587
71,636231107379312639
71,636231107379417707
71,636231107379522761
71,636231107379632822
71,636231107379737889
71,636231107379842974
71,636231107379948007
71,636231107380053052
71,636231107380158124
71,636231107380263170
71,636231107380368237
71,636231107380473300
71,636231107380578380
71,636231107380683408
71,636231107380788655
71,636231107380893705
71,636231107381003578
71,636231107381108786
71,636231107381213883
71,636231107381318754
71,636231107381428832
71,636231107381533882
71,636231107381638937
71,636231107381744008
71,636231107381849071
71,636231107381954125
71,636231107382064358
71,636231107382169416
71,636231107382274308
71,636231107382379538
71,636231107382484614
71,636231107382589467
71,636231107382689715
71,636231107382794774
71,636231107382904655
71,636231107383009714
71,636231107383114764
71,636231107383219831
71,636231107383324890
71,636231107383430124
71,636231107383535011
71,636231107383635238
71,636231107383740104
71,636231107383850358
71,636231107383955412
71,636231107384060475
71,636231107384165354
71,636231107384270417
71,636231107384375463
71,636231107384480735
71,636231107384585597
71,636231107384695851
71,636231107384800700
71,636231107384905947
71,636231107385011010
71,636231107385116060
71,636231107385220947
71,636231107385321174
71,636231107385431052
71,636231107385536127
71,636231107385641186
71,636231107385746416
71,636231107385851299
71,636231107385956357
71,636231107386061583
71,636231107386166534
71,636231107386276527
71,636231107386381607
71,636231107386486756
71,636231107386591699
71,636231107386696963
71,636231107386801816
71,636231107386911877
71,636231107387016949
71,636231107387121990
71,636231107387227066
71,636231107387332125
71,636231107387437354
71,636231107387542242
71,636231107387647288
71,636231107387752346
71,636231107387857422
71,636231107387962463
71,636231107388067710
71,636231107388177583
71,636231107388282826
71,636231107388387701
71,636231107388492772
71,636231107388597835
71,636231107388702893
71,636231107388808119
71,636231107388913177
71,636231107389018048
71,636231107389123128
71,636231107389228186
71,636231107389333224
71,636231107389438291
71,636231107389543537
71,636231107389648408
71,636231107389753479
71,636231107389858709
71,636231107389963596
71,636231107390068655
71,636231107390178708
71,636231107390283942
71,636231107390389000
71,636231107390493875
71,636231107390598959
71,636231107390704176
71,636231107390809055
71,636231107390909291
71,636231107391014353
71,636231107391119224
71,636231107391224475
71,636231107391329521
71,636231107391434583
71,636231107391539561
71,636231107391644530
71,636231107391749575
71,636231107391854634
71,636231107391959705
71,636231107392064764
71,636231107392169831
71,636231107392274885
71,636231107392379927
71,636231107392485182
71,636231107392595103
71,636231107392700114
71,636231107392805164
71,636231107392910223
71,636231107393015465
71,636231107393120357
71,636231107393225578
71,636231107393335644
71,636231107393440527
71,636231107393545594
71,636231107393655638
71,636231107393760710
71,636231107393865760
71,636231107393971002
71,636231107394080893
71,636231107394186122
71,636231107394290988
71,636231107394396235
71,636231107394501290
71,636231107394606357
71,636231107394711411
71,636231107394816478
71,636231107394926535
71,636231107395031410
71,636231107395136469
71,636231107395241536
71,636231107395346817
71,636231107395451644
71,636231107395556707
71,636231107395661941
71,636231107395766833
71,636231107395871887
71,636231107395976933
71,636231107396082175
71,636231107396187234
71,636231107396292293
71,636231107396397360
71,636231107396502410
71,636231107396607473
71,636231107396712343
71,636231107396817406
71,636231107396922648
71,636231107397027549
71,636231107397132761
71,636231107397237816
71,636231107397342900
71,636231107397447967
71,636231107397557819
71,636231107397662886
71,636231107397767945
71,636231107397872990
71,636231107397978062
71,636231107398083291
71,636231107398188265
71,636231107398293413
71,636231107398398300
71,636231107398503346
71,636231107398608580
71,636231107398718475
71,636231107398823529
71,636231107398928575
71,636231107399033650
71,636231107399138709
71,636231107399243772
71,636231107399348813
71,636231107399454086
71,636231107399558926
71,636231107399663985
71,636231107399774239
71,636231107399879293
71,636231107399984352
71,636231107400089243
71,636231107400194289
71,636231107400299527
71,636231107400404590
71,636231107400509645
71,636231107400614707
71,636231107400719595
71,636231107400829644
71,636231107400934877
71,636231107401039761
71,636231107401139996
71,636231107401249899
71,636231107401354932
71,636231107401460008
71,636231107401570065
71,636231107401675124
71,636231107401780186
71,636231107401885241
71,636231107401990483
71,636231107402095529
71,636231107402200417
71,636231107402305676
71,636231107402410709
71,636231107402515768
71,636231107402620822
71,636231107402725697
71,636231107402830939
71,636231107402935810
71,636231107403040890
71,636231107403145927
71,636231107403251015
71,636231107403356232
71,636231107403466289
71,636231107403576171
71,636231107403681418
71,636231107403791475
71,636231107403896350
71,636231107404001421
71,636231107404106475
71,636231107404211542
71,636231107404316768
71,636231107404421643
71,636231107404526889
71,636231107404631944
71,636231107404736840
71,636231107404841881
71,636231107404947136
71,636231107405057185
71,636231107405162239
71,636231107405267302
71,636231107405372181
71,636231107405477253
71,636231107405582290
71,636231107405687344
71,636231107405792407
71,636231107405897470
71,636231107406002717
71,636231107406112586
71,636231107406217644
71,636231107406322716
71,636231107406427945
71,636231107406532820
71,636231107406637878
71,636231107406742950
71,636231107406848184
71,636231107406953238
71,636231107407058113
71,636231107407163360
71,636231107407268234
71,636231107407373293
72,636231107407478351
72,636231107407583431
72,636231107407683654
72,636231107407788542
72,636231107407898590
72,636231107408003644
72,636231107408108887
72,636231107408213984
72,636231107408319025
72,636231107408424097
72,636231107408529121
72,636231107408633992
72,636231107408734231
72,636231107408839106
72,636231107408944353
72,636231107409049228
72,636231107409154278
72,636231107409259529
72,636231107409369406
72,636231107409474469
72,636231107409579707
72,636231107409689760
72,636231107409799655
72,636231107409904889
72,636231107410009772
72,636231107410120004
72,636231107410225063
72,636231107410335128
72,636231107410440025
72,636231107410545079
72,636231107410650300
72,636231107410755175
72,636231107410855419
72,636231107410960302
72,636231107411065356
72,636231107411170423
72,636231107411275657
72,636231107411380536
72,636231107411485591
72,636231107411590829
72,636231107411695887
72,636231107411800942
72,636231107411906000
72,636231107412010875
72,636231107412111145
72,636231107412215989
72,636231107412321065
72,636231107412426299
72,636231107412531187
72,636231107412641410
72,636231107412746465
72,636231107412851357
72,636231107412956419
72,636231107413061649
72,636231107413166532
72,636231107413276769
72,636231107413381828
72,636231107413486702
72,636231107413591765
72,636231107413701814
72,636231107413807060
72,636231107413911944
72,636231107414012188
72,636231107414117092
72,636231107414222292
72,636231107414327167
72,636231107414432409
72,636231107414537468
72,636231107414642343
72,636231107414747401
72,636231107414857475
72,636231107414962709
72,636231107415067584
72,636231107415172651
72,636231107415277889
72,636231107415382777
72,636231107415488002
72,636231107415592868
72,636231107415698119
72,636231107415803169
72,636231107415908061
72,636231107416013291
72,636231107416118170
72,636231107416223224
72,636231107416328505
72,636231107416438344
72,636231107416538588
72,636231107416643647
72,636231107416753516
72,636231107416858762
72,636231107416968824
72,636231107417073720
72,636231107417178937
72,636231107417283816
72,636231107417389058
72,636231107417493946
72,636231107417604011
72,636231107417714073
72,636231107417819294
72,636231107417924361
72,636231107418029236
72,636231107418139306
72,636231107418244356
72,636231107418349624
72,636231107418454469
72,636231107418559553
72,636231107418664581
72,636231107418769644
72,636231107418874720
72,636231107418979757
72,636231107419089823
72,636231107419195074
72,636231107419300124
72,636231107419405011
72,636231107419515244
72,636231107419620439
72,636231107419725498
72,636231107419830561
72,636231107419935427
72,636231107420040515
72,636231107420145553
72,636231107420250624
72,636231107420355661
72,636231107420460737
72,636231107420565800
72,636231107420670837
72,636231107420776084
72,636231107420880959
72,636231107420991221
72,636231107421096091
72,636231107421201154
72,636231107421306380
72,636231107421411442
72,636231107421516497
72,636231107421621555
72,636231107421726443
72,636231107421831493
72,636231107421936731
72,636231107422041610
72,636231107422146669
72,636231107422251732
72,636231107422356807
72,636231107422462028
72,636231107422566916
72,636231107422672163
72,636231107422777225
72,636231107422882087
72,636231107422987317
72,636231107423097212
72,636231107423202266
72,636231107423307324
72,636231107423412375
72,636231107423517442
72,636231107423622697
72,636231107423727546
72,636231107423832600
72,636231107423937667
72,636231107424042735
72,636231107424147977
72,636231107424252852
72,636231107424357898
72,636231107424462965
72,636231107424568036
72,636231107424673090
72,636231107424778145
72,636231107424883374
72,636231107424988459
72,636231107425093303
72,636231107425198383
72,636231107425308612
72,636231107425413670
72,636231107425523565
72,636231107425628790
72,636231107425733853
72,636231107425838903
72,636231107425943778
72,636231107426048875
72,636231107426154198
72,636231107426259090
72,636231107426364149
72,636231107426469203
72,636231107426574262
72,636231107426679496
72,636231107426784388
72,636231107426889442
72,636231107426994671
72,636231107427104746
72,636231107427209625
72,636231107427314850
72,636231107427419742
72,636231107427524783
72,636231107427635033
72,636231107427739916
72,636231107427845150
72,636231107427950209
72,636231107428055075
72,636231107428165170
72,636231107428275198
72,636231107428380260
72,636231107428490506
72,636231107428595385
72,636231107428700443
72,636231107428805502
72,636231107428910573
72,636231107429015632
72,636231107429120686
72,636231107429225941
72,636231107429330803
72,636231107429436029
72,636231107429541092
72,636231107429646159
72,636231107429751042
72,636231107429861185
72,636231107429966162
72,636231107430071203
72,636231107430171443
72,636231107430276502
72,636231107430386392
72,636231107430491434
72,636231107430596496
72,636231107430701559
72,636231107430806614
72,636231107430911689
72,636231107431021917
72,636231107431127002
72,636231107431231868
72,636231107431336909
72,636231107431446971
72,636231107431552217
72,636231107431662279
72,636231107431767252
72,636231107431872225
72,636231107431977450
72,636231107432082325
72,636231107432192570
72,636231107432297462
72,636231107432402521
72,636231107432507567
72,636231107432612805
72,636231107432717697
72,636231107432822926
72,636231107432927801
72,636231107433033048
72,636231107433142929
72,636231107433247975
72,636231107433358037
72,636231107433468115
72,636231107433573340
72,636231107433678236
72,636231107433783466
72,636231107433888520
72,636231107433993395
72,636231107434103465
72,636231107434208528
72,636231107434318572
72,636231107434423631
72,636231107434528707
72,636231107434633752
72,636231107434738807
72,636231107434843882
72,636231107434948932
72,636231107435053982
72,636231107435159062
72,636231107435264125
72,636231107435369179
72,636231107435474230
72,636231107435579275
72,636231107435689345
72,636231107435794395
72,636231107435894639
72,636231107435999723
72,636231107436104568
72,636231107436209824
72,636231107436314703
72,636231107436419744
72,636231107436524824
72,636231107436630066
72,636231107436735112
72,636231107436840196
72,636231107436945041
72,636231107437050279
72,636231107437155163
72,636231107437260397
72,636231107437365271
72,636231107437470351
72,636231107437575389
72,636231107437685450
72,636231107437790508
72,636231107437895755
72,636231107438000810
72,636231107438110696
72,636231107438215763
72,636231107438320992
72,636231107438425863
72,636231107438530951
72,636231107438641171
72,636231107438746041
72,636231107438851309
72,636231107438956364
72,636231107439061217
72,636231107439171291
72,636231107439276367
72,636231107439386587
72,636231107439496669
72,636231107439601634
72,636231107439711815
72,636231107439816643
72,636231107439921881
73,636231107440026777
73,636231107440131998
73,636231107440237057
73,636231107440341931
73,636231107440447170
73,636231107440552237
73,636231107440657116
73,636231107440762179
73,636231107440867246
73,636231107440972471
73,636231107441077525
73,636231107441187407
73,636231107441292483
73,636231107441402536
73,636231107441512584
73,636231107441617643
73,636231107441722706
73,636231107441827974
73,636231107441932844
73,636231107442033097
73,636231107442143145
73,636231107442248011
73,636231107442353250
73,636231107442458295
73,636231107442563192
73,636231107442668246
73,636231107442773313
73,636231107442873531
73,636231107442978415
73,636231107443088463
73,636231107443193714
73,636231107443303579
73,636231107443408830
73,636231107443513709
73,636231107443618759
73,636231107443729008
73,636231107443833896
73,636231107443938942
73,636231107444043996
73,636231107444149067
73,636231107444254109
73,636231107444359189
73,636231107444464252
73,636231107444569306
73,636231107444674531
73,636231107444779423
73,636231107444884649
73,636231107444994706
73,636231107445099585
73,636231107445204831
73,636231107445314722
73,636231107445419763
73,636231107445524848
73,636231107445629885
73,636231107445735123
73,636231107445840015
73,636231107445945060
73,636231107446050132
73,636231107446155396
73,636231107446260232
73,636231107446365312
73,636231107446470542
73,636231107446575429
73,636231107446675652
73,636231107446785709
73,636231107446895770
73,636231107447000649
73,636231107447105708
73,636231107447210766
73,636231107447315825
73,636231107447421067
73,636231107447526130
73,636231107447631180
73,636231107447741066
73,636231107447846300
73,636231107447951192
73,636231107448056238
73,636231107448161309
73,636231107448266351
73,636231107448371598
73,636231107448476660
73,636231107448581531
73,636231107448686585
73,636231107448791648
73,636231107448896886
73,636231107449001949
73,636231107449106820
73,636231107449212079
73,636231107449321952
73,636231107449426998
73,636231107449532074
73,636231107449637132
73,636231107449742178
73,636231107449852235
73,636231107449957298
73,636231107450062357
73,636231107450167428
73,636231107450272487
73,636231107450377528
73,636231107450482792
73,636231107450587872
73,636231107450692888
73,636231107450797951
73,636231107450902825
73,636231107451007901
73,636231107451113126
73,636231107451218181
73,636231107451323239
73,636231107451428311
73,636231107451533357
73,636231107451638424
73,636231107451743290
73,636231107451853544
73,636231107451958598
73,636231107452063486
73,636231107452168536
73,636231107452273590
73,636231107452378858
73,636231107452483908
73,636231107452588761
73,636231107452694004
73,636231107452799062
73,636231107452908957
73,636231107453013999
73,636231107453119061
73,636231107453224300
73,636231107453329358
73,636231107453434417
73,636231107453539475
73,636231107453644371
73,636231107453749434
73,636231107453854472
73,636231107453959543
73,636231107454064602
73,636231107454169656
73,636231107454274727
73,636231107454379777
73,636231107454484836
73,636231107454589877
73,636231107454694936
73,636231107454800204
73,636231107454905267
73,636231107455010304
73,636231107455115170
73,636231107455225249
73,636231107455330474
73,636231107455435460
73,636231107455540591
73,636231107455645466
73,636231107455750542
73,636231107455855780
73,636231107455965653
73,636231107456070896
73,636231107456175770
73,636231107456285823
73,636231107456390899
73,636231107456496133
73,636231107456601008
73,636231107456706058
73,636231107456811120
73,636231107456916363
73,636231107457021233
73,636231107457126292
73,636231107457231368
73,636231107457336597
73,636231107457446684
73,636231107457551529
73,636231107457656772
73,636231107457761651
73,636231107457866730
73,636231107457971785
73,636231107458082013
73,636231107458186896
73,636231107458292010
73,636231107458397005
73,636231107458502068
73,636231107458602333
73,636231107458707357
73,636231107458812420
73,636231107458917308
73,636231107459022563
73,636231107459127613
73,636231107459232672
73,636231107459337739
73,636231107459447796
73,636231107459552855
73,636231107459657888
73,636231107459762946
73,636231107459867851
73,636231107459972897
73,636231107460077938
73,636231107460183018
73,636231107460288239
73,636231107460393127
73,636231107460498177
73,636231107460608247
73,636231107460713292
73,636231107460818543
73,636231107460923431
73,636231107461028494
73,636231107461133531
73,636231107461238602
73,636231107461348668
73,636231107461453889
73,636231107461558961
73,636231107461663844
73,636231107461768894
73,636231107461873957
73,636231107461978998
73,636231107462084241
73,636231107462189304
73,636231107462294178
73,636231107462399416
73,636231107462504308
73,636231107462609358
73,636231107462714417
73,636231107462819651
73,636231107462924526
73,636231107463029606
73,636231107463134827
73,636231107463239894
73,636231107463344760
73,636231107463454838
73,636231107463565071
73,636231107463670129
73,636231107463775017
73,636231107463885254
73,636231107463990120
73,636231107464100378
73,636231107464205265
73,636231107464315301
73,636231107464420544
73,636231107464530609
73,636231107464635484
73,636231107464735728
73,636231107464840603
73,636231107464945653
73,636231107465045892
73,636231107465150784
73,636231107465256010
73,636231107465361072
73,636231107465470963
73,636231107465576188
73,636231107465681247
73,636231107465786139
73,636231107465891193
73,636231107465996256
73,636231107466101314
73,636231107466206540
73,636231107466311414
73,636231107466416661
73,636231107466521532
73,636231107466626783
73,636231107466731837
73,636231107466836720
73,636231107466941792
73,636231107467051840
73,636231107467156907
73,636231107467261957
73,636231107467372027
73,636231107467482251
73,636231107467587164
73,636231107467692189
73,636231107467797260
73,636231107467902498
73,636231107468012547
73,636231107468117439
73,636231107468222480
73,636231107468327573
73,636231107468432781
73,636231107468537677
73,636231107468642907
73,636231107468747961
73,636231107468852883
73,636231107468957907
73,636231107469062966
73,636231107469168191
73,636231107469273276
73,636231107469383324
73,636231107469488203
73,636231107469593433
73,636231107469698303
73,636231107469803362
73,636231107469908420
73,636231107470013479
73,636231107470118550
73,636231107470218777
73,636231107470323669
73,636231107470433718
73,636231107470538772
73,636231107470644019
73,636231107470748906
73,636231107470853948
73,636231107470959028
73,636231107471064078
73,636231107471169316
73,636231107471274191
73,636231107471379241
73,636231107471484304
73,636231107471589358
73,636231107471694605
73,636231107471804478
73,636231107471909725
73,636231107472014595
73,636231107472119654
73,636231107472224909
73,636231107472329950
73,636231107472435017
73,636231107472540076
73,636231107472644955
73,636231107472750022
73,636231107472855081
73,636231107472960152
73,636231107473065185
73,636231107473170261
73,636231107473280335
73,636231107473385372
73,636231107473490418
73,636231107473595481
73,636231107473705726
73,636231107473810614
73,636231107473915843
73,636231107474020902
73,636231107474125781
73,636231107474230831
73,636231107474336078
73,636231107474440970
73,636231107474546195
73,636231107474651078
73,636231107474761140
73,636231107474866378
73,636231107474971261
73,636231107475076495
73,636231107475181391
73,636231107475286424
73,636231107475391491
73,636231107475496537
73,636231107475601784
73,636231107475706663
73,636231107475811734
73,636231107475916788
73,636231107476022018
73,636231107476127077
73,636231107476231960
73,636231107476337018
73,636231107476442064
73,636231107476547302
73,636231107476652365
73,636231107476757257
73,636231107476862316
73,636231107476972360
73,636231107477077436
73,636231107477182494
73,636231107477287540
73,636231107477392611
73,636231107477497657
73,636231107477602895
73,636231107477707958
73,636231107477812829
73,636231107477918080
73,636231107478022946
73,636231107478128022
73,636231107478233251
73,636231107478338305
73,636231107478443373
73,636231107478548423
73,636231107478653314
73,636231107478758360
73,636231107478868605
73,636231107478973668
73,636231107479078723
73,636231107479183781
73,636231107479288656
73,636231107479393727
73,636231107479498777
73,636231107479603853
73,636231107479708886
73,636231107479814154
73,636231107479919208
73,636231107480024246
73,636231107480129304
73,636231107480239182
73,636231107480344245
73,636231107480449513
73,636231107480554358
73,636231107480659442
73,636231107480764475
73,636231107480869533
73,636231107480974780
73,636231107481079839
73,636231107481184709
73,636231107481289785
73,636231107481394826
73,636231107481499889
73,636231107481604961
73,636231107481710019
73,636231107481815078
73,636231107481920312
73,636231107482025387
73,636231107482130254
73,636231107482235479
73,636231107482340354
73,636231107482445429
73,636231107482550471
73,636231107482655551
73,636231107482760609
73,636231107482865830
73,636231107482970893
73,636231107483080955
73,636231107483185825
73,636231107483291072
73,636231107483396143
73,636231107483501031
73,636231107483606072
73,636231107483716164
73,636231107483821184
73,636231107483926242
73,636231107484031480
73,636231107484141563
73,636231107484251441
73,636231107484356495
73,636231107484461549
73,636231107484566612
73,636231107484671658
73,636231107484776905
73,636231107484881788
73,636231107484987013
73,636231107485092076
73,636231107485197131
73,636231107485302189
73,636231107485407243
73,636231107485512122
73,636231107485622184
73,636231107485727255
73,636231107485832489
73,636231107485937548
73,636231107486042602
73,636231107486147481
73,636231107486252719
73,636231107486362614
73,636231107486467660
73,636231107486572718
73,636231107486677790
73,636231107486782844
73,636231107486888078
73,636231107486993132
73,636231107487098024
73,636231107487203065
73,636231107487308128
73,636231107487413367
73,636231107487518459
73,636231107487623317
73,636231107487733549
73,636231107487838604
73,636231107487943517
73,636231107488048541
73,636231107488153600
73,636231107488258654
73,636231107488363909
73,636231107488468955
73,636231107488573830
73,636231107488679077
73,636231107488783956
73,636231107488889006
73,636231107488999084
73,636231107489109124
73,636231107489214379
73,636231107489319434
72,636231107489424304
72,636231107489534370
72,636231107489639608
72,636231107489744667
72,636231107489854591
72,636231107489959607
72,636231107490064661
72,636231107490169724
72,636231107490279999
72,636231107490385024
72,636231107490489899
72,636231107490594979
72,636231107490705048
72,636231107490815268
72,636231107490920138
72,636231107491025197
72,636231107491130444
72,636231107491240334
72,636231107491345397
72,636231107491450438
72,636231107491555497
72,636231107491660740
72,636231107491765794
72,636231107491870754
72,636231107491980743
72,636231107492085977
72,636231107492190851
72,636231107492295901
72,636231107492401148
72,636231107492506044
72,636231107492616294
72,636231107492721143
72,636231107492826223
72,636231107492936263
72,636231107493041317
72,636231107493146564
72,636231107493251627
72,636231107493356493
72,636231107493461581
72,636231107493566803
72,636231107493676860
72,636231107493781918
72,636231107493886981
72,636231107493991869
72,636231107494096932
72,636231107494202161
72,636231107494307044
72,636231107494412107
72,636231107494517328
72,636231107494622220
72,636231107494727446
72,636231107494832333
72,636231107494937383
72,636231107495047628
72,636231107495152691
72,636231107495257557
72,636231107495362616
72,636231107495467863
72,636231107495572742
72,636231107495677809
72,636231107495788037
72,636231107495897936
72,636231107496003170
72,636231107496108216
72,636231107496213095
72,636231107496318157
72,636231107496428232
72,636231107496533273
72,636231107496638533
72,636231107496748577
72,636231107496853631
72,636231107496958532
72,636231107497063646
73,636231107497173647
73,636231107497278873
73,636231107497383747
73,636231107497488986
73,636231107497594048
73,636231107497699111
73,636231107497808993
73,636231107497914039
73,636231107498019303
73,636231107498124156
73,636231107498229257
73,636231107498329625
73,636231107498434680
73,636231107498539751
73,636231107498644964
73,636231107498749834
73,636231107498854906
73,636231107498959960
73,636231107499065194
73,636231107499175076
73,636231107499280147
73,636231107499385206
73,636231107499490439
73,636231107499595323
73,636231107499700381
73,636231107499805440
73,636231107499910674
73,636231107500015724
73,636231107500120616
73,636231107500225845
73,636231107500330733
73,636231107500435791
73,636231107500540850
73,636231107500645900
73,636231107500750971
73,636231107500851194
73,636231107500961251
73,636231107501066130
73,636231107501171210
73,636231107501276427
73,636231107501386493
73,636231107501491376
73,636231107501601613
73,636231107501706663
73,636231107501811537
73,636231107501916784
73,636231107502026845
73,636231107502131904
73,636231107502236783
73,636231107502341854
73,636231107502446926
73,636231107502551963
73,636231107502657013
73,636231107502762076
73,636231107502867152
73,636231107502972403
73,636231107503077265
73,636231107503182524
73,636231107503287365
73,636231107503392637
73,636231107503502711
73,636231107503612738
73,636231107503717613
73,636231107503827854
73,636231107503932742
73,636231107504037805
73,636231107504142842
73,636231107504247917
73,636231107504352959
73,636231107504458035
73,636231107504563097
73,636231107504668143
74,636231107504778200
74,636231107504883255
74,636231107504988531
74,636231107505093581
74,636231107505203450
74,636231107505308509
74,636231107505413764
74,636231107505518618
74,636231107505623693
74,636231107505728748
74,636231107505833802
74,636231107505938843
74,636231107506048922
74,636231107506154147
74,636231107506259210
74,636231107506364264
74,636231107506469332
74,636231107506574215
74,636231107506679286
74,636231107506784319
74,636231107506889386
74,636231107506994453
74,636231107507099704
74,636231107507204566
74,636231107507309805
74,636231107507414855
74,636231107507519913
74,636231107507624967
74,636231107507734845
74,636231107507839904
74,636231107507944984
74,636231107508050209
74,636231107508155096
74,636231107508260138
74,636231107508365385
74,636231107508470443
74,636231107508575314
74,636231107508680377
74,636231107508785469
74,636231107508890494
74,636231107508995548
74,636231107509100615
74,636231107509205687
74,636231107509310908
74,636231107509415966
74,636231107509521068
74,636231107509626088
74,636231107509730962
74,636231107509836021
74,636231107509941268
74,636231107510046318
74,636231107510151210
74,636231107510256251
74,636231107510361498
74,636231107510466552
74,636231107510576618
74,636231107510681672
74,636231107510786726
74,636231107510891614
74,636231107510996852
74,636231107511101723
74,636231107511206798
74,636231107511311840
74,636231107511422089
74,636231107511526981
74,636231107511632014
74,636231107511737081
74,636231107511842136
74,636231107511947395
74,636231107512052248
74,636231107512157333
74,636231107512262366
74,636231107512367625
74,636231107512472671
74,636231107512577563
74,636231107512682600
74,636231107512787684
74,636231107512892730
74,636231107512997968
74,636231107513103027
74,636231107513208081
74,636231107513313140
74,636231107513418027
74,636231107513523257
74,636231107513628320
74,636231107513733374
74,636231107513838245
74,636231107513943307
74,636231107514048362
74,636231107514153442
74,636231107514258479
74,636231107514363721
74,636231107514468613
74,636231107514573843
74,636231107514678713
74,636231107514788779
74,636231107514893855
74,636231107514999080
74,636231107515103959
74,636231107515209013
74,636231107515314072
74,636231107515419130
74,636231107515524403
74,636231107515629265
74,636231107515734323
74,636231107515839557
74,636231107515944428
74,636231107516049666
74,636231107516154553
74,636231107516259595
74,636231107516364846
74,636231107516469721
74,636231107516574775
74,636231107516679834
74,636231107516785072
74,636231107516889964
74,636231107516995193
74,636231107517100072
74,636231107517205233
74,636231107517310373
74,636231107517415239
74,636231107517520319
74,636231107517625549
74,636231107517735602
74,636231107517840498
74,636231107517945556
74,636231107518050594
74,636231107518160659
74,636231107518265898
74,636231107518375779
74,636231107518481026
74,636231107518585914
74,636231107518690968
74,636231107518796206
74,636231107518901252
74,636231107519006144
74,636231107519111194
74,636231107519221255
74,636231107519326314
74,636231107519431385
74,636231107519536444
74,636231107519641690
74,636231107519751551
74,636231107519856815
74,636231107519961873
74,636231107520071738
74,636231107520176797
74,636231107520286862
74,636231107520392092
74,636231107520497146
74,636231107520602034
74,636231107520712082
74,636231107520817158
74,636231107520922204
74,636231107521032445
74,636231107521137508
74,636231107521242378
74,636231107521347437
74,636231107521452517
74,636231107521557579
74,636231107521662629
74,636231107521767880
74,636231107521872943
74,636231107521977972
74,636231107522083031
74,636231107522188085
74,636231107522292964
74,636231107522393199
74,636231107522498262
74,636231107522603325
74,636231107522708191
74,636231107522813271
74,636231107522918330
74,636231107523028370
74,636231107523133625
74,636231107523238491
74,636231107523343729
74,636231107523448630
74,636231107523558666
74,636231107523663728
74,636231107523768967
74,636231107523873846
74,636231107523983903
74,636231107524093994
74,636231107524199211
74,636231107524309281
74,636231107524419150
74,636231107524529395
74,636231107524634462
74,636231107524739324
74,636231107524844455
74,636231107524954461
74,636231107525059524
74,636231107525164565
74,636231107525269808
74,636231107525374866
74,636231107525479925
74,636231107525584817
74,636231107525689858
74,636231107525794938
74,636231107525900159
74,636231107526005222
74,636231107526110106
74,636231107526215357
74,636231107526320394
74,636231107526425281
74,636231107526535509
74,636231107526640401
74,636231107526740632
74,636231107526845687
74,636231107526955744
74,636231107527060807
74,636231107527165865
74,636231107527275922
74,636231107527385988
74,636231107527490876
74,636231107527595921
74,636231107527700984
74,636231107527806227
74,636231107527911106
74,636231107528021171
74,636231107528126431
74,636231107528231276
75,636231107528336347
75,636231107528441393
75,636231107528546631
75,636231107528651510
75,636231107528756581
75,636231107528861644
75,636231107528971791
75,636231107529076931
75,636231107529181998
75,636231107529286860
75,636231107529392107
75,636231107529496994
75,636231107529602228
75,636231107529707099
75,636231107529812337
75,636231107529917224
75,636231107530017460
75,636231107530122330
75,636231107530227573
75,636231107530332443
75,636231107530437506
75,636231107530542577
75,636231107530647811
75,636231107530752703
75,636231107530857924
75,636231107530962816
75,636231107531073044
75,636231107531177915
75,636231107531282999
75,636231107531388036
75,636231107531493274
75,636231107531603340
75,636231107531708232
75,636231107531813278
75,636231107531918340
75,636231107532023399
75,636231107532128449
75,636231107532233516
75,636231107532338571
75,636231107532443638
75,636231107532548683
75,636231107532653759
75,636231107532763799
75,636231107532864043
75,636231107532969102
75,636231107533073981
75,636231107533174216
75,636231107533279275
75,636231107533384162
75,636231107533484389
75,636231107533589277
75,636231107533689499
75,636231107533794378
75,636231107533894618
75,636231107533999510
75,636231107534104551
75,636231107534209610
75,636231107534319859
75,636231107534424734
75,636231107534529972
75,636231107534640055
75,636231107534744913
75,636231107534849988
75,636231107534955030
75,636231107535060084
75,636231107535170145
75,636231107535280220
75,636231107535385282
75,636231107535495515
75,636231107535600381
75,636231107535705444
75,636231107535810691
75,636231107535915745
75,636231107536020633
75,636231107536130685
75,636231107536235757
75,636231107536340982
75,636231107536445870
75,636231107536550937
75,636231107536655987
75,636231107536756214
75,636231107536861101
75,636231107536971334
75,636231107537076208
75,636231107537181263
75,636231107537286509
75,636231107537391393
75,636231107537501625
75,636231107537611524
75,636231107537716749
75,636231107537821628
75,636231107537926683
75,636231107538031925
75,636231107538136800
75,636231107538246866
75,636231107538351920
75,636231107538456974
75,636231107538557214
75,636231107538662093
75,636231107538767361
75,636231107538872424
75,636231107538977482
75,636231107539082507
75,636231107539187570
75,636231107539297443
75,636231107539402690
75,636231107539507564
75,636231107539612636
75,636231107539717686
75,636231107539822920
75,636231107539927987
75,636231107540033041
75,636231107540138104
75,636231107540242987
75,636231107540348054
75,636231107540453087
75,636231107540558163
75,636231107540663393
75,636231107540768473
75,636231107540873326
75,636231107540978568
75,636231107541088634
75,636231107541193697
75,636231107541303579
75,636231107541408808
75,636231107541513687
75,636231107541618737
75,636231107541723817
75,636231107541828915
75,636231107541933913
75,636231107542039164
75,636231107542144219
75,636231107542249281
75,636231107542359351
75,636231107542464218
75,636231107542569276
75,636231107542674330
75,636231107542779389
75,636231107542884460
75,636231107542989523
75,636231107543094561
75,636231107543199641
75,636231107543304699
75,636231107543409920
75,636231107543514983
75,636231107543619853
75,636231107543725100
75,636231107543830155
75,636231107543940053
75,636231107544045283
75,636231107544150154
75,636231107544255396
75,636231107544360463
75,636231107544465522
75,636231107544570572
75,636231107544675630
75,636231107544780514
75,636231107544885743
75,636231107544990618
75,636231107545100696
75,636231107545205755
75,636231107545310818
75,636231107545416043
75,636231107545521110
75,636231107545626160
75,636231107545731052
75,636231107545836094
75,636231107545941340
75,636231107546046211
75,636231107546151270
75,636231107546256516
75,636231107546361571
75,636231107546466458
75,636231107546571504
75,636231107546676584
75,636231107546786624
75,636231107546891700
75,636231107547001744
75,636231107547106807
75,636231107547211861
75,636231107547317125
75,636231107547421995
75,636231107547527050
75,636231107547632112
75,636231107547732365
75,636231107547837227
75,636231107547942448
75,636231107548047327
75,636231107548152398
75,636231107548257461
75,636231107548367689
75,636231107548472744
75,636231107548577807
75,636231107548682698
75,636231107548787932
75,636231107548892982
75,636231107548997870
75,636231107549102920
75,636231107549208008
75,636231107549318232
75,636231107549423107
75,636231107549528332
75,636231107549633224
75,636231107549738274
75,636231107549843508
75,636231107549953403
75,636231107550058641
75,636231107550163524
75,636231107550268630
75,636231107550378807
75,636231107550483878
75,636231107550588924
75,636231107550693820
75,636231107550798874
75,636231107550903920
75,636231107551014003
75,636231107551119224
75,636231107551224291
75,636231107551329337
75,636231107551434229
75,636231107551539454
75,636231107551649349
75,636231107551754578
75,636231107551859633
75,636231107551964512
75,636231107552069754
75,636231107552174808
75,636231107552279875
76,636231107552384930
76,636231107552489993
76,636231107552595055
76,636231107552700101
76,636231107552804980
76,636231107552910047
76,636231107553015110
76,636231107553120173
76,636231107553225398
76,636231107553330453
76,636231107553435332
76,636231107553545573
76,636231107553650447
76,636231107553760530
76,636231107553865585
76,636231107553970818
76,636231107554075877
76,636231107554180765
76,636231107554285806
76,636231107554395867
76,636231107554500939
76,636231107554606169
76,636231107554711227
76,636231107554816098
76,636231107554921344
76,636231107555026403
76,636231107555131290
76,636231107555236340
76,636231107555341403
76,636231107555446458
76,636231107555551512
76,636231107555656566
76,636231107555761646
76,636231107555866876
76,636231107555971768
76,636231107556076801
76,636231107556187050
76,636231107556291925
76,636231107556397172
76,636231107556502222
76,636231107556607289
76,636231107556712343
76,636231107556817406
76,636231107556922294
76,636231107557027519
76,636231107557132394
76,636231107557237465
76,636231107557342695
76,636231107557447569
76,636231107557552649
76,636231107557657721
76,636231107557767761
76,636231107557872807
76,636231107557977878
76,636231107558082941
76,636231107558187995
76,636231107558293058
76,636231107558398095
76,636231107558503346
76,636231107558608229
76,636231107558718466
76,636231107558823349
76,636231107558928579
76,636231107559033633
76,636231107559138692
76,636231107559243759
76,636231107559348625
76,636231107559453710
76,636231107559558755
76,636231107559663805
76,636231107559768860
76,636231107559874106
76,636231107559979186
76,636231107560089055
76,636231107560194101
76,636231107560299344
76,636231107560404406
76,636231107560509277
76,636231107560614348
76,636231107560719582
76,636231107560824465
76,636231107560929704
76,636231107561034754
76,636231107561139808
76,636231107561244871
76,636231107561349934
76,636231107561454813
76,636231107561564861
76,636231107561674931
76,636231107561779994
76,636231107561885070
76,636231107561990107
76,636231107562095178
76,636231107562200271
76,636231107562300481
76,636231107562405540
76,636231107562510607
76,636231107562615451
76,636231107562720510
76,636231107562825581
76,636231107562930653
76,636231107563035686
76,636231107563135925
76,636231107563240984
76,636231107563346043
76,636231107563450917
76,636231107563551157
76,636231107563656036
76,636231107563761090
76,636231107563866153
76,636231107563971225
76,636231107564076270
76,636231107564181513
76,636231107564286379
76,636231107564391455
76,636231107564496680
76,636231107564601576
76,636231107564706810
76,636231107564811676
76,636231107564916914
76,636231107565021806
76,636231107565126865
76,636231107565231915
76,636231107565337153
76,636231107565442216
76,636231107565547082
76,636231107565652337
76,636231107565757199
76,636231107565862271
76,636231107565967509
76,636231107566072379
76,636231107566177451
76,636231107566282719
76,636231107566387739
76,636231107566492609
76,636231107566597689
76,636231107566702919
76,636231107566807789
76,636231107566912848
76,636231107567018095
76,636231107567123149
76,636231107567233206
76,636231107567338098
76,636231107567443178
76,636231107567548202
76,636231107567658260
76,636231107567763335
76,636231107567863562
76,636231107567968445
76,636231107568068689
76,636231107568173547
76,636231107568278819
75,636231107568383891
75,636231107568488945
75,636231107568593786
75,636231107568698844
75,636231107568803920
75,636231107568908978
75,636231107569014204
75,636231107569119258
75,636231107569224154
75,636231107569329388
75,636231107569434271
75,636231107569539309
75,636231107569644389
75,636231107569749614
75,636231107569854672
75,636231107569959551
75,636231107570064627
75,636231107570169844
75,636231107570274740
75,636231107570379970
75,636231107570484857
75,636231107570589894
75,636231107570695150
75,636231107570805027
75,636231107570910077
75,636231107571015337
75,636231107571120383
75,636231107571225253
75,636231107571330324
75,636231107571435554
75,636231107571540429
75,636231107571645522
75,636231107571750546
75,636231107571855793
75,636231107571965675
75,636231107572070725
75,636231107572175796
75,636231107572281026
75,636231107572385900
75,636231107572490959
75,636231107572596030
75,636231107572701260
75,636231107572806319
75,636231107572916384
75,636231107573021443
75,636231107573126501
75,636231107573231560
75,636231107573336430
75,636231107573441502
75,636231107573546560
75,636231107573651606
75,636231107573761680
75,636231107573866726
75,636231107573971973
75,636231107574077027
75,636231107574182000
75,636231107574286965
75,636231107574392212
75,636231107574497095
75,636231107574602149
75,636231107574707375
75,636231107574812467
75,636231107574917530
75,636231107575022384
75,636231107575132612
75,636231107575237508
75,636231107575342562
75,636231107575447796
75,636231107575552761
75,636231107575657913
75,636231107575767970
75,636231107575872862
75,636231107575978083
75,636231107576083146
75,636231107576188042
75,636231107576293092
75,636231107576398330
75,636231107576503214
75,636231107576608255
75,636231107576708495
75,636231107576813387
75,636231107576918642
75,636231107577023508
75,636231107577128725
75,636231107577233792
75,636231107577338842
75,636231107577443901
75,636231107577548780
75,636231107577654026
75,636231107577759102
75,636231107577863968
75,636231107577969202
75,636231107578074256
75,636231107578179144
75,636231107578289376
75,636231107578394435
75,636231107578499314
75,636231107578604381
75,636231107578709435
75,636231107578814669
75,636231107578919540
75,636231107579024616
75,636231107579129888
75,636231107579234908
75,636231107579339962
75,636231107579445029
75,636231107579549908
75,636231107579654963
75,636231107579760026
75,636231107579865093
75,636231107579970130
75,636231107580075368
75,636231107580180431
75,636231107580285485
75,636231107580390548
75,636231107580495611
75,636231107580600499
75,636231107580705549
75,636231107580810624
75,636231107580915657
75,636231107581020896
75,636231107581130790
75,636231107581241023
75,636231107581345923
75,636231107581450956
75,636231107581561197
75,636231107581666255
75,636231107581771130
75,636231107581876385
75,636231107581981431
75,636231107582086310
75,636231107582191553
75,636231107582296616
75,636231107582401670
75,636231107582506562
75,636231107582611599
75,636231107582716670
75,636231107582821904
75,636231107582926792
75,636231107583032034
75,636231107583136892
75,636231107583241972
75,636231107583347052
75,636231107583452269
75,636231107583562326
75,636231107583667196
75,636231107583772451
75,636231107583877497
75,636231107583982547
75,636231107584087452
75,636231107584192481
75,636231107584297560
75,636231107584402623
75,636231107584507673
75,636231107584612907
75,636231107584717782
75,636231107584822836
75,636231107584927912
75,636231107585032975
75,636231107585138008
75,636231107585243075
75,636231107585348146
75,636231107585453376
75,636231107585558430
75,636231107585663489
75,636231107585768548
75,636231107585873435
75,636231107585978498
75,636231107586083719
75,636231107586188782
75,636231107586293836
75,636231107586398737
75,636231107586503787
75,636231107586609021
75,636231107586713904
75,636231107586819151
75,636231107586924017
75,636231107587029067
75,636231107587129315
75,636231107587234194
75,636231107587339462
75,636231107587444324
75,636231107587549361
75,636231107587654599
75,636231107587764661
75,636231107587869719
75,636231107587974774
75,636231107588079841
75,636231107588184895
75,636231107588289984
75,636231107588394828
75,636231107588500084
75,636231107588604946
75,636231107588710000
75,636231107588815247
75,636231107588920160
75,636231107589025193
75,636231107589130422
75,636231107589235297
75,636231107589345542
75,636231107589450434
75,636231107589555489
75,636231107589660757
75,636231107589765811
75,636231107589870669
75,636231107589975723
75,636231107590085780
75,636231107590190839
75,636231107590296077
75,636231107590400960
75,636231107590506019
75,636231107590611077
75,636231107590716307
75,636231107590821194
75,636231107590926266
75,636231107591031299
75,636231107591136396
75,636231107591241412
75,636231107591346483
75,636231107591446718
75,636231107591556600
75,636231107591661864
75,636231107591766931
75,636231107591871973
75,636231107591976839
75,636231107592081885
75,636231107592192134
75,636231107592297188
75,636231107592402247
75,636231107592507139
75,636231107592612193
75,636231107592717239
75,636231107592822310
75,636231107592927360
75,636231107593032611
75,636231107593137661
75,636231107593242532
75,636231107593347591
75,636231107593452653
75,636231107593557892
75,636231107593662972
75,636231107593767838
75,636231107593873067
75,636231107593977963
75,636231107594083013
75,636231107594188072
75,636231107594293297
75,636231107594398194
75,636231107594508242
75,636231107594613292
75,636231107594718372
75,636231107594823606
75,636231107594933492
75,636231107595038529
75,636231107595143614
75,636231107595248664
75,636231107595353893
75,636231107595463771
75,636231107595568834
75,636231107595673909
75,636231107595779160
75,636231107595884022
75,636231107595994079
75,636231107596099313
75,636231107596204196
75,636231107596309439
75,636231107596414301
75,636231107596519359
75,636231107596624602
75,636231107596729665
75,636231107596834723
75,636231107596939778
75,636231107597044674
75,636231107597149895
75,636231107597254782
75,636231107597360012
75,636231107597464891
75,636231107597569954
75,636231107597675008
75,636231107597780246
75,636231107597885142
75,636231107597990193
75,636231107598100339
75,636231107598205300
75,636231107598315549
75,636231107598420685
75,636231107598525559
75,636231107598630614
75,636231107598735668
75,636231107598840744
75,636231107598945785
75,636231107599050976
75,636231107599155902
75,636231107599261171
75,636231107599366037
75,636231107599476085
75,636231107599581148
75,636231107599681384
75,636231107599786275
75,636231107599891334
75,636231107599996555
75,636231107600101639
75,636231107600206505
75,636231107600311735
75,636231107600416610
75,636231107600526688
75,636231107600631730
75,636231107600741795
75,636231107600847034
75,636231107600951930
75,636231107601057155
75,636231107601162043
75,636231107601267272
75,636231107601372164
75,636231107601477201
75,636231107601582444
75,636231107601687318
75,636231107601792390
75,636231107601897453
75,636231107602002678
75,636231107602107549
75,636231107602212624
75,636231107602322882
75,636231107602432939
75,636231107602537793
75,636231107602642856
75,636231107602747910
75,636231107602852964
75,636231107602963210
75,636231107603068268
75,636231107603173335
75,636231107603283392
75,636231107603388464
75,636231107603493338
75,636231107603598577
75,636231107603703460
75,636231107603808510
75,636231107603913569
75,636231107604013800
75,636231107604118687
75,636231107604223750
75,636231107604328787
75,636231107604433867
75,636231107604538930
75,636231107604643984
75,636231107604749235
75,636231107604854097
75,636231107604959156
75,636231107605064206
75,636231107605169448
75,636231107605274315
75,636231107605379377
75,636231107605479630
75,636231107605584509
75,636231107605689580
75,636231107605794793
75,636231107605899672
75,636231107606004731
75,636231107606109969
75,636231107606214843
75,636231107606319915
75,636231107606424961
75,636231107606530032
75,636231107606635262
75,636231107606740320
75,636231107606845216
75,636231107606955269
75,636231107607060315
75,636231107607165562
75,636231107607270616
75,636231107607380498
75,636231107607485565
75,636231107607595797
75,636231107607700685
75,636231107607805739
75,636231107607910794
75,636231107608015856
75,636231107608120924
75,636231107608225961
75,636231107608331212
75,636231107608441098
75,636231107608546165
75,636231107608646388
75,636231107608756479
75,636231107608861336
75,636231107608966558
75,636231107609071642
75,636231107609176705
75,636231107609281558
75,636231107609386625
75,636231107609491688
75,636231107609596725
75,636231107609697140
75,636231107609802032
75,636231107609907078
75,636231107610007309
75,636231107610112192
75,636231107610217255
75,636231107610322489
75,636231107610427381
75,636231107610532602
75,636231107610637477
75,636231107610742552
75,636231107610847778
75,636231107610957664
75,636231107611062898
75,636231107611167785
75,636231107611272827
75,636231107611377889
75,636231107611483132
75,636231107611588002
75,636231107611693249
75,636231107611798312
75,636231107611903187
75,636231107612008271
75,636231107612113492
75,636231107612218380
75,636231107612323605
75,636231107612428488
75,636231107612533718
75,636231107612638819
75,636231107612743668
75,636231107612848723
75,636231107612953768
75,636231107613058823
75,636231107613163898
75,636231107613268965
75,636231107613373998
75,636231107613479249
75,636231107613584120
75,636231107613689358
75,636231107613794254
75,636231107613899296
75,636231107614004534
75,636231107614109421
75,636231107614209652
75,636231107614314532
75,636231107614419774
75,636231107614524649
75,636231107614629716
75,636231107614734762
75,636231107614839816
75,636231107614949899
75,636231107615059956
76,636231107615165194
76,636231107615270060
76,636231107615375132
76,636231107615480190
76,636231107615590243
76,636231107615695485
76,636231107615800356
76,636231107615905427
76,636231107616010653
76,636231107616115544
76,636231107616225610
76,636231107616330656
76,636231107616435732
76,636231107616545960
76,636231107616651048
76,636231107616755902
76,636231107616860947
76,636231107616966010
76,636231107617071077
76,636231107617176307
76,636231107617281177
76,636231107617386240
76,636231107617491295
76,636231107617601544
76,636231107617706603
76,636231107617811657
76,636231107617916532
76,636231107618026803
76,636231107618131656
76,636231107618236740
76,636231107618341777
76,636231107618446832
76,636231107618551907
76,636231107618656949
76,636231107618762020
76,636231107618867254
76,636231107618977316
76,636231107619082199
76,636231107619187424
76,636231107619292316
76,636231107619397370
76,636231107619502433
76,636231107619607496
76,636231107619712550
76,636231107619817780
76,636231107619922668
76,636231107620027713
76,636231107620132768
76,636231107620237856
76,636231107620343077
76,636231107620447952
76,636231107620558202
76,636231107620663247
76,636231107620768344
76,636231107620878201
76,636231107620983439
76,636231107621088318
76,636231107621193547
76,636231107621298426
76,636231107621408496
76,636231107621513743
76,636231107621618780
76,636231107621723843
76,636231107621828897
76,636231107621933789
76,636231107622038831
76,636231107622143906
76,636231107622248965
76,636231107622359197
76,636231107622464072
76,636231107622569135
76,636231107622674189
76,636231107622779261
76,636231107622884490
76,636231107622989545
76,636231107623094428
76,636231107623199495
76,636231107623304558
76,636231107623409612
76,636231107623514846
76,636231107623619721
76,636231107623724959
76,636231107623830022
76,636231107623934918
76,636231107624045146
76,636231107624150021
76,636231107624250252
76,636231107624360318
76,636231107624465192
76,636231107624570443
76,636231107624680308
76,636231107624785375
76,636231107624890425
76,636231107624995663
76,636231107625100756
76,636231107625205811
76,636231107625310660
76,636231107625415718
76,636231107625520798
76,636231107625630851
76,636231107625735901
76,636231107625841139
76,636231107625946014
76,636231107626051261
76,636231107626156324
76,636231107626261378
76,636231107626371435
76,636231107626476327
76,636231107626581552
76,636231107626691618
76,636231107626796672
76,636231107626901547
76,636231107627006648
76,636231107627111809
76,636231107627221905
76,636231107627326968
76,636231107627431843
76,636231107627537081
76,636231107627642139
76,636231107627752017
76,636231107627857101
76,636231107627962322
76,636231107628067381
76,636231107628172439
76,636231107628277314
76,636231107628382565
76,636231107628487448
76,636231107628592494
76,636231107628697741
76,636231107628802620
76,636231107628907661
76,636231107629012750
76,636231107629117971
76,636231107629223030
76,636231107629328110
76,636231107629432971
76,636231107629538043
76,636231107629643076
76,636231107629748147
76,636231107629858375
76,636231107629963259
76,636231107630068497
76,636231107630173384
76,636231107630273611
76,636231107630378670
76,636231107630483562
76,636231107630588787
76,636231107630693858
76,636231107630798733
76,636231107630908777
76,636231107631013840
76,636231107631118907
76,636231107631223975
76,636231107631334023
76,636231107631444097
76,636231107631549323
76,636231107631654407
76,636231107631759461
76,636231107631864503
76,636231107631969386
76,636231107632074457
76,636231107632179679
76,636231107632284566
76,636231107632389612
76,636231107632499669
76,636231107632604740
76,636231107632709786
76,636231107632815033
76,636231107632919916
76,636231107633025146
76,636231107633130020
76,636231107633235079
76,636231107633340146
76,636231107633445196
76,636231107633550443
76,636231107633655532
76,636231107633760577
76,636231107633870446
76,636231107633975492
76,636231107634080576
76,636231107634185793
76,636231107634290847
76,636231107634395910
76,636231107634500785
76,636231107634605856
76,636231107634711090
76,636231107634816140
76,636231107634921024
76,636231107635026266
76,636231107635131320
76,636231107635236212
76,636231107635341262
76,636231107635446312
76,636231107635551563
76,636231107635656613
76,636231107635761676
76,636231107635866542
76,636231107635971798
76,636231107636076689
76,636231107636181739
76,636231107636286961
76,636231107636397031
76,636231107636502081
76,636231107636606977
76,636231107636712018
76,636231107636822268
76,636231107636927155
76,636231107637037328
76,636231107637142262
76,636231107637247329
76,636231107637357558
76,636231107637462454
76,636231107637567500
76,636231107637672738
76,636231107637777625
76,636231107637887687
76,636231107637997923
76,636231107638102789
76,636231107638208049
76,636231107638313099
76,636231107638422985
76,636231107638528215
76,636231107638633094
76,636231107638738152
76,636231107638843211
76,636231107638948261
76,636231107639053516
76,636231107639158378
76,636231107639263454
76,636231107639368688
76,636231107639473562
76,636231107639578625
76,636231107639683675
76,636231107639788738
76,636231107639898808
76,636231107640003871
76,636231107640109122
76,636231107640218987
76,636231107640324054
76,636231107640429279
76,636231107640534150
76,636231107640639208
76,636231107640739448
76,636231107640844318
76,636231107640949561
76,636231107641054444
76,636231107641164685
76,636231107641274580
76,636231107641379621
76,636231107641484859
76,636231107641589777
76,636231107641694981
76,636231107641799860
76,636231107641904918
76,636231107642005154
76,636231107642110024
76,636231107642215271
76,636231107642320141
76,636231107642425397
76,636231107642530455
76,636231107642635322
76,636231107642740393
76,636231107642845623
76,636231107642950514
76,636231107643055735
76,636231107643160798
76,636231107643265686
76,636231107643370744
76,636231107643475786
76,636231107643581033
76,636231107643685907
76,636231107643790966
76,636231107643896050
76,636231107644001087
76,636231107644106146
76,636231107644211213
76,636231107644316464
76,636231107644421335
76,636231107644526564
76,636231107644631448
76,636231107644736506
76,636231107644841548
76,636231107644951626
76,636231107645061859
76,636231107645166750
76,636231107645276799
76,636231107645382037
76,636231107645487096
76,636231107645592154
76,636231107645697213
76,636231107645807095
76,636231107645917147
76,636231107646022227
77,636231107646127453
77,636231107646232554
77,636231107646337591
77,636231107646442633
77,636231107646552502
77,636231107646657582
77,636231107646767626
77,636231107646872873
77,636231107646982759
77,636231107647087805
77,636231107647192872
77,636231107647293107
77,636231107647397990
77,636231107647503220
77,636231107647608279
77,636231107647713337
77,636231107647818396
77,636231107647923288
77,636231107648033349
77,636231107648138412
77,636231107648243453
77,636231107648353506
77,636231107648458757
77,636231107648563641
77,636231107648668686
77,636231107648773753
77,636231107648878983
77,636231107648989053
77,636231107649094107
77,636231107649199166
77,636231107649304053
77,636231107649409287
77,636231107649514158
77,636231107649619212
77,636231107649724292
77,636231107649824515
77,636231107649934392
77,636231107650039464
77,636231107650144509
77,636231107650249568
77,636231107650354627
77,636231107650459685
77,636231107650569742
77,636231107650674822
77,636231107650779881
77,636231107650890105
77,636231107650995167
77,636231107651105058
77,636231107651210292
77,636231107651315350
77,636231107651420234
77,636231107651525468
77,636231107651630351
77,636231107651735414
77,636231107651840468
77,636231107651950512
77,636231107652055592
77,636231107652160655
77,636231107652265701
77,636231107652370772
77,636231107652470986
77,636231107652575870
77,636231107652681108
77,636231107652781322
77,636231107652891366
77,636231107652996425
77,636231107653101671
77,636231107653206542
77,636231107653311784
77,636231107653416655
77,636231107653521722
77,636231107653626776
77,636231107653727016
77,636231107653831886
77,636231107653936958
77,636231107654042187
77,636231107654147092
77,636231107654252133
77,636231107654357183
77,636231107654462246
77,636231107654567318
77,636231107654672359
77,636231107654782634
77,636231107654887492
77,636231107654992752
77,636231107655097802
77,636231107655202877
77,636231107655307897
77,636231107655412952
77,636231107655517844
77,636231107655622885
77,636231107655732964
77,636231107655838039
77,636231107655943260
77,636231107656048127
77,636231107656148375
77,636231107656253254
77,636231107656358483
77,636231107656463546
77,636231107656568417
77,636231107656673488
77,636231107656778551
77,636231107656883588
77,636231107656993654
77,636231107657098734
77,636231107657208770
77,636231107657314021
77,636231107657418891
77,636231107657523967
77,636231107657629188
77,636231107657739253
77,636231107657844128
77,636231107657949375
77,636231107658059428
77,636231107658164486
77,636231107658269545
77,636231107658374612
77,636231107658479495
77,636231107658584541
77,636231107658689604
77,636231107658794671
77,636231107658899922
77,636231107659004771
77,636231107659109847
77,636231107659214893
77,636231107659319968
77,636231107659425006
77,636231107659530064
77,636231107659635311
77,636231107659740378
77,636231107659845437
77,636231107659950303
77,636231107660055541
77,636231107660160433
77,636231107660270481
77,636231107660375724
77,636231107660480782
77,636231107660585837
77,636231107660690900
77,636231107660795958
77,636231107660900841
77,636231107661006080
77,636231107661111134
77,636231107661216192
77,636231107661321255
77,636231107661426305
77,636231107661531206
77,636231107661636256
77,636231107661741302
77,636231107661846373
77,636231107661951603
77,636231107662056657
77,636231107662161716
77,636231107662266778
77,636231107662371670
77,636231107662476712
77,636231107662576973
77,636231107662682036
77,636231107662786885
77,636231107662891943
77,636231107662997006
77,636231107663102078
77,636231107663207299
77,636231107663312186
77,636231107663417420
77,636231107663522295
77,636231107663622539
77,636231107663727413
77,636231107663832468
77,636231107663937710
77,636231107664042598
77,636231107664152659
77,636231107664257709
77,636231107664362759
77,636231107664468002
77,636231107664573060
77,636231107664677939
77,636231107664783011
77,636231107664893243
77,636231107664998114
77,636231107665103189
77,636231107665213242
77,636231107665318301
77,636231107665423351
77,636231107665528426
77,636231107665633481
77,636231107665738740
77,636231107665843795
77,636231107665948857
77,636231107666053890
77,636231107666158949
77,636231107666263837
77,636231107666368895
77,636231107666474125
77,636231107666579012
77,636231107666684238
77,636231107666789305
77,636231107666899362
77,636231107667004254
77,636231107667109496
77,636231107667214354
77,636231107667324608
77,636231107667434665
77,636231107667539548
77,636231107667644803
77,636231107667754865
77,636231107667859714
77,636231107667964982
77,636231107668074829
77,636231107668184908
77,636231107668290133
77,636231107668395209
77,636231107668500084
77,636231107668605322
77,636231107668715204
77,636231107668820262
77,636231107668925488
77,636231107669030388
77,636231107669135438
78,636231107669245491
78,636231107669355544
78,636231107669460615
78,636231107669565665
78,636231107669670719
78,636231107669780995
78,636231107669885857
78,636231107669986105
78,636231107670091176
78,636231107670196230
78,636231107670306296
78,636231107670411346
78,636231107670516195
78,636231107670621254
78,636231107670726312
78,636231107670831367
78,636231107670936430
78,636231107671041484
78,636231107671146726
78,636231107671251789
78,636231107671356852
78,636231107671461735
78,636231107671566785
78,636231107671671857
78,636231107671782128
78,636231107671886977
78,636231107671992224
78,636231107672097073
78,636231107672202324
78,636231107672307386
78,636231107672412265
78,636231107672522327
78,636231107672627368
78,636231107672732453
78,636231107672842681
78,636231107672947564
78,636231107673052789
78,636231107673157664
78,636231107673262740
78,636231107673367969
78,636231107673473066
78,636231107673577920
78,636231107673678142
78,636231107673783222
78,636231107673888089
78,636231107673993344
78,636231107674098189
78,636231107674208438
78,636231107674313497
78,636231107674418367
78,636231107674523614
78,636231107674628501
78,636231107674733564
78,636231107674838619
78,636231107674943660
78,636231107675048907
78,636231107675158964
78,636231107675264023
78,636231107675369085
78,636231107675473960
78,636231107675579019
78,636231107675689084
78,636231107675794160
78,636231107675899214
78,636231107676004269
78,636231107676109520
78,636231107676214386
78,636231107676324434
78,636231107676429514
78,636231107676534547
78,636231107676639790
78,636231107676749667
78,636231107676854726
78,636231107676959968
78,636231107677064843
78,636231107677169910
78,636231107677274960
78,636231107677380040
78,636231107677485266
78,636231107677590320
78,636231107677695199
78,636231107677800258
78,636231107677905320
78,636231107678010370
78,636231107678115630
78,636231107678220526
78,636231107678320749
78,636231107678425623
78,636231107678530853
78,636231107678635929
78,636231107678745806
78,636231107678846029
78,636231107678951083
78,636231107679060965
78,636231107679166015
78,636231107679276260
78,636231107679381323
78,636231107679486386
78,636231107679591261
78,636231107679701322
78,636231107679806406
78,636231107679911619
78,636231107680016489
78,636231107680121736
78,636231107680226628
78,636231107680336856
78,636231107680441731
78,636231107680546973
78,636231107680652032
78,636231107680757099
78,636231107680862162
78,636231107680972223
78,636231107681077200
78,636231107681182332
78,636231107681287386
78,636231107681397443
78,636231107681502506
78,636231107681607394
78,636231107681712619
78,636231107681817519
78,636231107681927747
78,636231107682032614
78,636231107682137676
78,636231107682242949
78,636231107682347802
78,636231107682448068
78,636231107682553122
78,636231107682657984
78,636231107682763213
78,636231107682868080
78,636231107682973155
78,636231107683078381
78,636231107683183260
78,636231107683288511
78,636231107683393561
78,636231107683498448
78,636231107683598679
78,636231107683703567
78,636231107683808608
78,636231107683913667
78,636231107684018743
78,636231107684123797
78,636231107684228856
78,636231107684338900
78,636231107684448978
78,636231107684554208
77,636231107684659275
77,636231107684764141
77,636231107684869200
77,636231107684974263
77,636231107685079330
77,636231107685184376
77,636231107685289438
77,636231107685394493
77,636231107685499564
77,636231107685604794
77,636231107685714791
77,636231107685819743
77,636231107685924810
77,636231107686029864
77,636231107686135094
77,636231107686239969
77,636231107686345027
77,636231107686450265
77,636231107686555350
77,636231107686660194
77,636231107686770260
77,636231107686875331
77,636231107686980561
77,636231107687085620
77,636231107687190494
77,636231107687295754
77,636231107687405798
77,636231107687510853
77,636231107687615915
77,636231107687720974
77,636231107687825849
77,636231107687930903
77,636231107688035979
77,636231107688141024
77,636231107688251082
77,636231107688361152
77,636231107688466214
77,636231107688566484
77,636231107688671333
77,636231107688776601
77,636231107688886444
77,636231107688996497
77,636231107689101744
77,636231107689206632
77,636231107689311690
77,636231107689416916
77,636231107689521978
77,636231107689626866
77,636231107689727093
77,636231107689831989
77,636231107689937022
77,636231107690042273
77,636231107690147323
77,636231107690252390
77,636231107690357278
77,636231107690462323
77,636231107690567395
77,636231107690672629
77,636231107690777508
77,636231107690882553
77,636231107690987608
77,636231107691092880
77,636231107691202745
77,636231107691307979
77,636231107691412845
77,636231107691518092
77,636231107691623150
77,636231107691728025
77,636231107691833096
77,636231107691938326
77,636231107692043201
77,636231107692148259
77,636231107692253318
77,636231107692353562
77,636231107692458625
77,636231107692563491
77,636231107692668733
77,636231107692773792
77,636231107692878850
77,636231107692983909
77,636231107693088985
77,636231107693194035
77,636231107693298897
77,636231107693404139
77,636231107693509014
77,636231107693614085
77,636231107693719315
77,636231107693824374
77,636231107693929274
77,636231107694034380
77,636231107694139554
77,636231107694244441
77,636231107694349671
77,636231107694454545
77,636231107694559608
77,636231107694664680
77,636231107694769717
77,636231107694874797
77,636231107694980018
77,636231107695084918
77,636231107695189973
77,636231107695300030
77,636231107695405255
77,636231107695515133
77,636231107695620375
77,636231107695725267
77,636231107695835512
77,636231107695940374
77,636231107696045617
77,636231107696150679
77,636231107696255729
77,636231107696360792
77,636231107696465684
77,636231107696570910
77,636231107696675806
77,636231107696781027
77,636231107696885901
77,636231107696991161
77,636231107697096031
77,636231107697201077
77,636231107697306315
77,636231107697411211
77,636231107697516437
77,636231107697621500
77,636231107697726366
77,636231107697831424
77,636231107697941486
77,636231107698046728
77,636231107698151791
77,636231107698256679
77,636231107698361724
77,636231107698466804
77,636231107698571867
77,636231107698677080
77,636231107698781963
77,636231107698887022
77,636231107698992093
77,636231107699097147
77,636231107699202210
77,636231107699312259
77,636231107699417326
77,636231107699527370
78,636231107699632613
78,636231107699737487
78,636231107699842747
78,636231107699947793
78,636231107700052689
78,636231107700157906
78,636231107700262802
78,636231107700367848
78,636231107700473094
78,636231107700577960
78,636231107700683032
78,636231107700793102
78,636231107700898139
78,636231107701003198
78,636231107701108269
78,636231107701213328
78,636231107701323560
78,636231107701428448
78,636231107701533681
78,636231107701638569
78,636231107701743623
78,636231107701848857
78,636231107701953741
78,636231107702058979
78,636231107702164029
78,636231107702268903
78,636231107702374150
78,636231107702479033
78,636231107702584263
78,636231107702689151
78,636231107702794376
78,636231107702899285
78,636231107703004309
78,636231107703109376
78,636231107703214435
78,636231107703319669
78,636231107703424548
78,636231107703529619
78,636231107703634862
78,636231107703739724
78,636231107703844966
78,636231107703950029
78,636231107704054900
78,636231107704160142
78,636231107704265201
78,636231107704370255
78,636231107704475313
78,636231107704580385
78,636231107704685435
78,636231107704790489
78,636231107704895398
78,636231107705000440
78,636231107705105485
78,636231107705205729
78,636231107705310805
78,636231107705415658
78,636231107705525737
78,636231107705630962
78,636231107705736017
78,636231107705841075
78,636231107705946134
78,636231107706051205
78,636231107706156067
78,636231107706261314
78,636231107706371204
78,636231107706476429
78,636231107706581304
78,636231107706686367
78,636231107706791610
78,636231107706896484
78,636231107707001547
78,636231107707106610
78,636231107707206841
78,636231107707311729
78,636231107707416792
78,636231107707521829
78,636231107707626887
78,636231107707731967
78,636231107707837197
78,636231107707942084
78,636231107708047126
78,636231107708152185
78,636231107708257256
78,636231107708362486
78,636231107708472419
78,636231107708577435
78,636231107708682493
78,636231107708787723
78,636231107708892777
78,636231107708997673
78,636231107709102719
78,636231107709202963
78,636231107709307833
78,636231107709412888
78,636231107709518134
78,636231107709623035
78,636231107709723270
78,636231107709833327
78,636231107709943397
78,636231107710048255
78,636231107710153301
78,636231107710258539
78,636231107710363418
78,636231107710468660
78,636231107710573719
78,636231107710678777
78,636231107710783836
78,636231107710888895
78,636231107710993957
78,636231107711103891
78,636231107711213892
78,636231107711318951
78,636231107711424009
78,636231107711529269
78,636231107711634327
78,636231107711744196
78,636231107711849242
78,636231107711954309
78,636231107712059368
78,636231107712164422
78,636231107712269511
78,636231107712379546
78,636231107712484614
78,636231107712584845
78,636231107712689899
78,636231107712794778
78,636231107712895800
78,636231107713001055
78,636231107713105922
78,636231107713211143
78,636231107713316022
78,636231107713426087
78,636231107713531146
78,636231107713636217
78,636231107713746274
78,636231107713851504
78,636231107713956588
78,636231107714066453
78,636231107714171683
78,636231107714276737
78,636231107714381813
78,636231107714486863
78,636231107714591729
78,636231107714696984
78,636231107714802038
78,636231107714906905
78,636231107715011963
78,636231107715117022
78,636231107715222085
78,636231107715327327
78,636231107715432202
77,636231107715537260
77,636231107715642336
77,636231107715747408
77,636231107715852462
77,636231107715957687
77,636231107716062780
77,636231107716167608
77,636231107716272692
77,636231107716377725
77,636231107716482788
77,636231107716592862
77,636231107716697903
77,636231107716803146
77,636231107716908038
77,636231107717013267
77,636231107717118159
77,636231107717223218
77,636231107717328276
77,636231107717433497
77,636231107717538389
77,636231107717638620
77,636231107717743508
77,636231107717848549
77,636231107717953792
77,636231107718058679
77,636231107718163909
77,636231107718273988
77,636231107718379050
77,636231107718483917
77,636231107718588962
77,636231107718694201
77,636231107718799097
77,636231107718904151
77,636231107719009192
77,636231107719114251
77,636231107719219493
77,636231107719324385
77,636231107719429619
77,636231107719534507
77,636231107719639548
77,636231107719744701
77,636231107719849858
77,636231107719954737
77,636231107720059778
77,636231107720165021
77,636231107720269917
77,636231107720374958
77,636231107720480201
77,636231107720585084
77,636231107720690151
77,636231107720800379
77,636231107720905442
77,636231107721010308
77,636231107721115371
77,636231107721220618
77,636231107721325488
77,636231107721430560
77,636231107721535785
77,636231107721640681
77,636231107721745723
77,636231107721850961
77,636231107721955836
77,636231107722061087
77,636231107722165979
77,636231107722271016
77,636231107722376074
77,636231107722481334
77,636231107722586196
77,636231107722691434
77,636231107722796510
77,636231107722901457
77,636231107723011608
77,636231107723116671
77,636231107723221730
77,636231107723326617
77,636231107723426844
77,636231107723536910
77,636231107723641793
77,636231107723747018
77,636231107723852081
77,636231107723956960
77,636231107724057196
77,636231107724162075
77,636231107724267326
77,636231107724372200
77,636231107724482454
77,636231107724592310
77,636231107724692546
77,636231107724797429
77,636231107724902667
77,636231107725007542
77,636231107725117783
77,636231107725227673
77,636231107725332911
77,636231107725437974
77,636231107725543020
77,636231107725647916
77,636231107725753137
77,636231107725858196
77,636231107725963071
77,636231107726068146
77,636231107726173201
77,636231107726278246
77,636231107726383339
77,636231107726488363
77,636231107726593443
77,636231107726698665
77,636231107726803762
77,636231107726913601
77,636231107727018685
77,636231107727123722
77,636231107727228776
77,636231107727333852
77,636231107727444080
77,636231107727548976
77,636231107727654197
77,636231107727759076
77,636231107727869317
77,636231107727974192
77,636231107728079443
