1,636231107176146455
1,636231107176316550
0,636231107176481659
0,636231107176646918
0,636231107176817017
0,636231107176981934
0,636231107177147197
0,636231107177317108
0,636231107177482200
0,636231107177652303
0,636231107177817395
0,636231107177982551
0,636231107178152792
0,636231107178317683
0,636231107178482813
0,636231107178653037
0,636231107178817949
0,636231107178988044
0,636231107179153136
0,636231107179318412
0,636231107179488323
0,636231107179653432
0,636231107179823527
0,636231107179988623
0,636231107180153711
0,636231107180323806
0,636231107180488885
0,636231107180654157
0,636231107180824252
0,636231107180989348
0,636231107181159250
0,636231107181324539
0,636231107181489447
0,636231107181659547
0,636231107181824634
0,636231107181989718
0,636231107182159834
0,636231107182325114
0,636231107182495000
0,636231107182660276
0,636231107182825197
0,636231107182995291
0,636231107183160388
0,636231107183325642
0,636231107183495566
0,636231107183660641
0,636231107183830740
0,636231107183995858
0,636231107184160933
1,636231107184331169
1,636231107184496111
0,636231107184661203
0,636231107184831491
0,636231107184996579
0,636231107185166490
0,636231107185331765
0,636231107185496858
0,636231107185666957
0,636231107185832040
0,636231107185996970
0,636231107186167060
0,636231107186332341
0,636231107186502234
0,636231107186667545
0,636231107186832431
0,636231107187002509
0,636231107187167618
0,636231107187337696
0,636231107187502792
0,636231107187667885
0,636231107187837979
0,636231107188003084
0,636231107188168352
0,636231107188338455
0,636231107188503556
0,636231107188668639
0,636231107188838909
0,636231107189003826
0,636231107189173908
0,636231107189339188
0,636231107189504105
0,636231107189674243
0,636231107189839275
0,636231107190004371
0,636231107190174650
0,636231107190339563
0,636231107190509649
0,636231107190674741
0,636231107190840021
0,636231107191010125
0,636231107191175204
0,636231107191340300
0,636231107191510395
0,636231107191675487
0,636231107191845398
0,636231107192010670
0,636231107192175599
0,636231107192345686
1,636231107192510949
1,636231107192680860
0,636231107192845973
0,636231107193011044
0,636231107193181160
0,636231107193346231
0,636231107193511327
0,636231107193681602
0,636231107193846694
0,636231107194011615
0,636231107194181710
0,636231107194346802
0,636231107194516888
0,636231107194682190
0,636231107194847277
0,636231107195017175
0,636231107195182272
0,636231107195352350
0,636231107195517626
0,636231107195682726
0,636231107195852624
0,636231107196017738
0,636231107196182997
0,636231107196352920
0,636231107196518008
0,636231107196688095
0,636231107196853187
0,636231107197018292
0,636231107197188472
0,636231107197353466
0,636231107197518571
0,636231107197688836
0,636231107197853762
0,636231107198023839
0,636231107198189115
0,636231107198354028
0,636231107198524118
0,636231107198689219
0,636231107198854486
0,636231107199024611
0,636231107199189502
0,636231107199359584
0,636231107199524689
0,636231107199689773
0,636231107199859932
0,636231107200024973
0,636231107200190231
0,636231107200360326
1,636231107200525440
1,636231107200695334
0,636231107200860417
0,636231107201025723
0,636231107201195630
0,636231107201360889
0,636231107201525831
0,636231107201696071
0,636231107201861001
0,636231107202031074
0,636231107202196354
0,636231107202361438
0,636231107202531541
0,636231107202696467
0,636231107202861546
0,636231107203031816
0,636231107203196729
0,636231107203366819
0,636231107203531924
0,636231107203697020
0,636231107203867286
0,636231107204032374
0,636231107204197287
0,636231107204367381
0,636231107204532653
0,636231107204702564
0,636231107204867656
0,636231107205032765
0,636231107205202860
0,636231107205367957
0,636231107205538030
0,636231107205703144
0,636231107205868432
0,636231107206038343
0,636231107206203418
0,636231107206368493
0,636231107206538785
0,636231107206703697
0,636231107206873775
0,636231107207038876
0,636231107207203968
0,636231107207374058
0,636231107207539167
0,636231107207704264
0,636231107207874547
0,636231107208039609
0,636231107208209520
1,636231107208374608
1,636231107208539708
0,636231107208709966
0,636231107208875075
0,636231107209039983
0,636231107209210087
0,636231107209375170
0,636231107209545273
0,636231107209710366
0,636231107209875633
0,636231107210045728
0,636231107210210820
0,636231107210375912
0,636231107210545827
0,636231107210711116
0,636231107210881010
0,636231107211046119
0,636231107211211198
0,636231107211381302
0,636231107211546569
0,636231107211711482
0,636231107211881572
0,636231107212046660
0,636231107212216772
0,636231107212382031
0,636231107212547123
0,636231107212717051
0,636231107212882130
0,636231107213047402
0,636231107213217317
0,636231107213382418
0,636231107213552500
0,636231107213717780
0,636231107213882688
0,636231107214052971
0,636231107214217884
0,636231107214383151
0,636231107214553058
0,636231107214718342
0,636231107214888275
0,636231107215053521
0,636231107215218446
0,636231107215388566
0,636231107215553629
0,636231107215718729
0,636231107215888824
0,636231107216053912
0,636231107216223994
0,636231107216389270
1,636231107216554191
1,636231107216724457
0,636231107216889540
0,636231107217054470
0,636231107217224736
0,636231107217389819
0,636231107217559734
0,636231107217724831
0,636231107217889923
0,636231107218060210
0,636231107218225118
0,636231107218390386
0,636231107218560481
0,636231107218725573
0,636231107218895479
0,636231107219060593
0,636231107219225852
0,636231107219395758
0,636231107219560863
0,636231107219730950
0,636231107219896050
0,636231107220061147
0,636231107220231220
0,636231107220396316
0,636231107220561592
0,636231107220731687
0,636231107220896600
0,636231107221066695
0,636231107221231799
0,636231107221396874
0,636231107221566974
0,636231107221732087
0,636231107221897158
0,636231107222067466
0,636231107222232366
0,636231107222402435
0,636231107222567707
0,636231107222732803
0,636231107222902731
0,636231107223068884
0,636231107223234160
0,636231107223404071
0,636231107223569167
0,636231107223734255
0,636231107223904354
0,636231107224069621
0,636231107224234713
0,636231107224404629
0,636231107224569905
0,636231107224739816
1,636231107224905104
1,636231107225070021
0,636231107225240099
0,636231107225405375
0,636231107225575282
0,636231107225740391
0,636231107225905483
0,636231107226075569
0,636231107226240832
0,636231107226405758
0,636231107226575840
0,636231107226740932
0,636231107226911027
0,636231107227076119
0,636231107227241390
0,636231107227411310
0,636231107227576586
0,636231107227741494
0,636231107227911585
0,636231107228075428
0,636231107228245848
0,636231107228412847
0,636231107228579761
0,636231107228743831
0,636231107228914635
0,636231107229080719
0,636231107229246628
0,636231107229414684
0,636231107229582243
0,636231107229748981
0,636231107229915506
0,636231107230082124
0,636231107230250145
0,636231107230415464
0,636231107230581783
0,636231107230751061
0,636231107230916799
0,636231107231084059
0,636231107231249378
0,636231107231418964
0,636231107231585941
0,636231107231752338
0,636231107231919897
0,636231107232086332
0,636231107232253305
0,636231107232420210
0,636231107232587213
0,636231107232754174
1,636231107232921156
1,636231107233088065
0,636231107233255090
0,636231107233422158
0,636231107233589781
0,636231107233753945
0,636231107233918879
0,636231107234088978
0,636231107234254070
0,636231107234424170
0,636231107234589253
0,636231107234754349
0,636231107234924453
0,636231107235088553
0,636231107235255911
0,636231107235426083
0,636231107235589995
0,636231107235760094
0,636231107235927273
0,636231107236094246
0,636231107236257440
0,636231107236427347
0,636231107236592614
0,636231107236762529
0,636231107236927805
0,636231107237092927
0,636231107237263304
0,636231107237428593
0,636231107237593514
0,636231107237763793
0,636231107237928688
0,636231107238093964
0,636231107238264059
0,636231107238428980
0,636231107238599062
0,636231107238764154
0,636231107238929246
0,636231107239099341
0,636231107239264467
0,636231107239434528
0,636231107239599616
0,636231107239764729
0,636231107239934807
0,636231107240099916
0,636231107240265004
0,636231107240435257
0,636231107240600195
0,636231107240765454
1,636231107240935386
1,636231107241100474
0,636231107241270552
0,636231107241435661
0,636231107241600732
0,636231107241770831
0,636231107241935996
0,636231107242101032
0,636231107242271294
0,636231107242436339
0,636231107242606305
0,636231107242771410
0,636231107242936485
0,636231107243106572
0,636231107243271873
0,636231107243441763
0,636231107243606868
0,636231107243772131
0,636231107243942042
0,636231107244107134
0,636231107244272247
0,636231107244442505
0,636231107244607426
0,636231107244777508
0,636231107244942595
0,636231107245107713
0,636231107245277799
0,636231107245442879
0,636231107245607975
0,636231107245778250
0,636231107245943337
0,636231107246113312
0,636231107246278405
0,636231107246443501
0,636231107246613596
0,636231107246778684
0,636231107246943776
0,636231107247113892
0,636231107247278963
0,636231107247449057
0,636231107247614333
0,636231107247779254
0,636231107247949349
0,636231107248114428
0,636231107248279525
0,636231107248449628
0,636231107248614725
0,636231107248784807
0,636231107248950100
0,636231107249115170
0,636231107249285094
1,636231107249450190
1,636231107249615458
0,636231107249785365
0,636231107249950478
0,636231107250120556
0,636231107250285656
0,636231107250450748
0,636231107250620839
0,636231107250785923
0,636231107250951194
0,636231107251121289
0,636231107251286210
0,636231107251456292
0,636231107251621568
0,636231107251786669
0,636231107251956584
0,636231107252121663
0,636231107252286777
0,636231107252456850
0,636231107252622126
0,636231107252792041
0,636231107252957313
0,636231107253122226
0,636231107253292316
0,636231107253457421
0,636231107253627507
0,636231107253792595
0,636231107253957704
0,636231107254127791
0,636231107254292896
0,636231107254457966
0,636231107254628061
0,636231107254793153
0,636231107254958249
0,636231107255128524
0,636231107255293436
0,636231107255463536
0,636231107255628632
0,636231107255793737
0,636231107255963990
0,636231107256129082
0,636231107256294067
0,636231107256464102
0,636231107256629181
0,636231107256799272
0,636231107256964360
0,636231107257129469
0,636231107257299555
0,636231107257464664
0,636231107257634746
1,636231107257799847
1,636231107257965106
0,636231107258135030
0,636231107258300147
0,636231107258465385
0,636231107258635296
0,636231107258800576
0,636231107258970487
0,636231107259135579
0,636231107259305670
0,636231107259470762
0,636231107259635880
0,636231107259800950
0,636231107259971143
0,636231107260136137
0,636231107260306232
0,636231107260471333
0,636231107260636604
0,636231107260806520
0,636231107260971612
0,636231107261136712
0,636231107261306786
0,636231107261471895
0,636231107261641973
0,636231107261807086
0,636231107261972178
0,636231107262142264
0,636231107262307365
0,636231107262472641
0,636231107262642543
0,636231107262807640
0,636231107262977722
0,636231107263142810
0,636231107263307923
0,636231107263478031
0,636231107263643089
0,636231107263808365
0,636231107263978293
0,636231107264143385
0,636231107264313467
0,636231107264478572
0,636231107264643839
0,636231107264813754
0,636231107264978838
0,636231107265143938
0,636231107265314021
0,636231107265479130
0,636231107265649207
0,636231107265814300
1,636231107265979588
1,636231107266149495
0,636231107266314583
0,636231107266479688
0,636231107266649778
0,636231107266815046
0,636231107266984957
0,636231107267150233
0,636231107267315154
0,636231107267485266
0,636231107267650524
0,636231107267820423
0,636231107267985510
0,636231107268150620
0,636231107268320697
0,636231107268485807
0,636231107268651104
0,636231107268821177
0,636231107268986086
0,636231107269156168
0,636231107269321260
0,636231107269486369
0,636231107269656549
0,636231107269821718
0,636231107269986648
0,636231107270156726
0,636231107270322006
0,636231107270491908
0,636231107270657116
0,636231107270822212
0,636231107270992204
0,636231107271157463
0,636231107271322393
0,636231107271492483
0,636231107271657746
0,636231107271827653
0,636231107271992745
0,636231107272158025
0,636231107272327936
0,636231107272493058
0,636231107272658129
0,636231107272828416
0,636231107272993303
0,636231107273163402
0,636231107273328490
0,636231107273493582
0,636231107273663677
0,636231107273828769
0,636231107273993878
0,636231107274163960
1,636231107274329052
1,636231107274499160
0,636231107274664248
0,636231107274829340
0,636231107274999473
0,636231107275164719
0,636231107275329824
0,636231107275499911
0,636231107275664823
0,636231107275834888
0,636231107275999997
0,636231107276165269
0,636231107276335248
0,636231107276500263
0,636231107276665368
0,636231107276835459
0,636231107277000777
0,636231107277170641
0,636231107277335909
0,636231107277501005
0,636231107277671040
0,636231107277836188
0,636231107278001284
0,636231107278171379
0,636231107278336471
0,636231107278506382
0,636231107278671487
0,636231107278836575
0,636231107279006657
0,636231107279171753
0,636231107279336969
0,636231107279506944
0,636231107279672045
0,636231107279842123
0,636231107280007215
0,636231107280172320
0,636231107280342419
0,636231107280507494
0,636231107280677589
0,636231107280842694
0,636231107281007777
0,636231107281177868
0,636231107281342973
0,636231107281508056
0,636231107281678348
0,636231107281843256
0,636231107282013334
0,636231107282178610
0,636231107282343702
0,636231107282513625
1,636231107282678705
1,636231107282843814
0,636231107283013904
0,636231107283178997
0,636231107283349079
0,636231107283514175
0,636231107283679442
0,636231107283849370
0,636231107284014462
0,636231107284179542
0,636231107284349820
0,636231107284514729
0,636231107284684828
0,636231107284849916
0,636231107285015033
0,636231107285185179
0,636231107285350404
0,636231107285515304
0,636231107285685399
0,636231107285850692
0,636231107286020573
0,636231107286185678
0,636231107286350770
0,636231107286520937
0,636231107286686128
0,636231107286851215
0,636231107287021144
0,636231107287186227
0,636231107287356313
0,636231107287521611
0,636231107287686515
0,636231107287856738
0,636231107288021877
0,636231107288186781
0,636231107288357068
0,636231107288522152
0,636231107288692063
0,636231107288857150
0,636231107289022255
0,636231107289192354
0,636231107289357442
0,636231107289527524
0,636231107289692638
0,636231107289857721
0,636231107290027820
0,636231107290193079
0,636231107290357987
0,636231107290528082
0,636231107290693179
1,636231107290863269
1,636231107291028545
0,636231107291193458
0,636231107291363561
0,636231107291528662
0,636231107291693737
0,636231107291863831
0,636231107292029107
0,636231107292199014
0,636231107292364290
0,636231107292529211
0,636231107292699310
0,636231107292864569
0,636231107293029486
0,636231107293199572
0,636231107293364848
0,636231107293534759
0,636231107293699864
0,636231107293865127
0,636231107294035081
0,636231107294200130
0,636231107294365410
0,636231107294535497
0,636231107294700589
0,636231107294870508
0,636231107295035780
0,636231107295200876
0,636231107295370804
0,636231107295536072
0,636231107295701151
0,636231107295871079
0,636231107296036158
0,636231107296206253
0,636231107296371563
0,636231107296536454
0,636231107296706532
0,636231107296871808
0,636231107297036900
0,636231107297206991
0,636231107297371899
0,636231107297541994
0,636231107297707090
0,636231107297872204
0,636231107298042286
0,636231107298207386
0,636231107298372675
0,636231107298542556
0,636231107298707828
0,636231107298877752
1,636231107299042835
1,636231107299207923
0,636231107299378035
0,636231107299543294
0,636231107299708386
0,636231107299878310
0,636231107300043385
0,636231107300213488
0,636231107300378785
0,636231107300543685
0,636231107300713776
0,636231107300879043
0,636231107301043955
0,636231107301214042
0,636231107301379138
0,636231107301549241
0,636231107301714505
0,636231107301879426
0,636231107302049525
0,636231107302214613
0,636231107302384699
0,636231107302549787
0,636231107302715058
0,636231107302884974
0,636231107303050245
0,636231107303215162
0,636231107303385274
0,636231107303550362
0,636231107303720439
0,636231107303885724
0,636231107304050628
0,636231107304220770
0,636231107304385815
0,636231107304551108
0,636231107304721015
0,636231107304886090
0,636231107305056184
0,636231107305221294
0,636231107305386369
0,636231107305556468
0,636231107305721573
0,636231107305886665
0,636231107306056747
0,636231107306221839
0,636231107306391951
0,636231107306557231
0,636231107306722131
0,636231107306892213
0,636231107307057300
0,636231107307222405
1,636231107307392671
1,636231107307557579
0,636231107307727679
0,636231107307892788
0,636231107308058051
0,636231107308227958
0,636231107308393054
0,636231107308558321
0,636231107308728232
0,636231107308893534
0,636231107309063419
0,636231107309228516
0,636231107309393787
0,636231107309563728
0,636231107309728974
0,636231107309893899
0,636231107310064165
0,636231107310229069
0,636231107310399168
0,636231107310564261
0,636231107310729365
0,636231107310899465
0,636231107311064552
0,636231107311229640
0,636231107311399726
0,636231107311565002
0,636231107311734909
0,636231107311900005
0,636231107312065093
0,636231107312235257
0,636231107312400293
0,636231107312565402
0,636231107312735476
0,636231107312900576
0,636231107313070658
0,636231107313235772
0,636231107313400851
0,636231107313570946
0,636231107313736209
0,636231107313901305
0,636231107314071229
0,636231107314236308
0,636231107314406403
0,636231107314571491
0,636231107314736767
0,636231107314906678
0,636231107315071774
0,636231107315236875
1,636231107315406961
1,636231107315572053
0,636231107315742144
0,636231107315907420
0,636231107316072512
0,636231107316242611
0,636231107316407699
0,636231107316572791
0,636231107316742894
0,636231107316907790
0,636231107317077893
0,636231107317243165
0,636231107317408257
0,636231107317578172
0,636231107317743448
0,636231107317908369
0,636231107318078631
0,636231107318243556
0,636231107318413647
0,636231107318578743
0,636231107318743998
0,636231107318913934
0,636231107319079005
0,636231107319249117
0,636231107319414213
0,636231107319579284
0,636231107319749379
0,636231107319914475
0,636231107320079584
0,636231107320249658
0,636231107320414934
0,636231107320584849
0,636231107320749950
0,636231107320915037
0,636231107321085124
0,636231107321250216
0,636231107321415321
0,636231107321585403
0,636231107321750499
0,636231107321920598
0,636231107322085874
0,636231107322250774
0,636231107322421052
0,636231107322585978
0,636231107322751053
0,636231107322921152
0,636231107323086248
0,636231107323256335
0,636231107323421427
0,636231107323586523
0,636231107323756643
1,636231107323921710
1,636231107324091805
0,636231107324257076
0,636231107324422168
0,636231107324592156
0,636231107324757189
0,636231107324922281
0,636231107325092363
0,636231107325257459
0,636231107325422560
0,636231107325592650
0,636231107325757759
0,636231107325927824
0,636231107326092929
0,636231107326258197
0,636231107326428108
0,636231107326593384
0,636231107326758300
0,636231107326928583
0,636231107327093474
0,636231107327263578
0,636231107327428845
0,636231107327593950
0,636231107327763848
0,636231107327928945
0,636231107328099040
0,636231107328264144
0,636231107328429232
0,636231107328599327
0,636231107328764423
0,636231107328929503
0,636231107329099781
0,636231107329264702
0,636231107329434780
0,636231107329600056
0,636231107329764986
0,636231107329935102
0,636231107330100348
0,636231107330265265
0,636231107330435526
0,636231107330600430
0,636231107330770529
0,636231107330935621
0,636231107331100726
0,636231107331270804
0,636231107331436080
0,636231107331601010
0,636231107331771126
0,636231107331936231
0,636231107332101323
0,636231107332271589
1,636231107332436514
1,636231107332606592
0,636231107332771868
0,636231107332936956
0,636231107333106875
0,636231107333271959
0,636231107333442058
0,636231107333607158
0,636231107333772238
0,636231107333942332
0,636231107334107429
0,636231107334272517
0,636231107334442624
0,636231107334607712
0,636231107334777803
0,636231107334942895
0,636231107335107983
0,636231107335278227
0,636231107335443358
0,636231107335608454
0,636231107335778365
0,636231107335943466
0,636231107336113548
0,636231107336278653
0,636231107336443911
0,636231107336613844
0,636231107336778932
0,636231107336944190
0,636231107337114302
0,636231107337279382
0,636231107337449301
0,636231107337614389
0,636231107337779477
0,636231107337949755
0,636231107338114659
0,636231107338284758
0,636231107338449863
0,636231107338614943
0,636231107338785037
0,636231107338950130
0,636231107339115234
0,636231107339285338
0,636231107339450597
0,636231107339615535
0,636231107339785595
0,636231107339950692
0,636231107340120787
0,636231107340285879
0,636231107340450967
0,636231107340621066
0,636231107340786337
1,636231107340951246
1,636231107341121345
0,636231107341286432
0,636231107341456527
0,636231107341621619
0,636231107341786711
0,636231107341956811
0,636231107342121903
0,636231107342291998
0,636231107342457090
0,636231107342622182
0,636231107342792277
0,636231107342957364
0,636231107343122461
0,636231107343292551
0,636231107343457648
0,636231107343627738
0,636231107343792830
0,636231107343957927
0,636231107344128022
0,636231107344293109
0,636231107344458210
0,636231107344628301
0,636231107344793397
0,636231107344963487
0,636231107345128575
0,636231107345293672
0,636231107345463766
0,636231107345628863
0,636231107345793951
0,636231107345964041
0,636231107346129138
0,636231107346299228
0,636231107346464320
0,636231107346629412
0,636231107346799507
0,636231107346964603
0,636231107347129696
0,636231107347299795
0,636231107347464887
0,636231107347634986
0,636231107347800082
0,636231107347965161
0,636231107348135252
0,636231107348300344
0,636231107348465436
0,636231107348635535
0,636231107348800623
0,636231107348970722
1,636231107349135810
1,636231107349300906
0,636231107349470997
0,636231107349636098
0,636231107349801185
0,636231107349971280
0,636231107350136372
0,636231107350306471
0,636231107350471555
0,636231107350636651
0,636231107350806738
0,636231107350971838
0,636231107351136930
0,636231107351307021
0,636231107351472117
0,636231107351642208
0,636231107351807304
0,636231107351972405
0,636231107352142487
0,636231107352307605
0,636231107352472697
0,636231107352642770
0,636231107352807862
0,636231107352977953
0,636231107353143049
0,636231107353308141
0,636231107353478240
0,636231107353643328
0,636231107353813419
0,636231107353978519
0,636231107354143611
0,636231107354313702
0,636231107354478790
0,636231107354643886
0,636231107354813981
0,636231107354979082
0,636231107355149164
0,636231107355314440
0,636231107355479365
0,636231107355649443
0,636231107355814552
0,636231107355979631
0,636231107356149726
0,636231107356314835
0,636231107356484921
0,636231107356650005
0,636231107356815088
0,636231107356985196
0,636231107357150464
0,636231107357315556
0,636231107357485462
0,636231107357650571
1,636231107357820654
1,636231107357985767
0,636231107358150838
0,636231107358320941
0,636231107358486037
0,636231107358651117
0,636231107358821224
0,636231107358986308
0,636231107359156398
0,636231107359321491
0,636231107359486587
0,636231107359656677
0,636231107359821774
0,636231107359986862
0,636231107360156965
0,636231107360322053
0,636231107360492237
0,636231107360657235
0,636231107360822340
0,636231107360992427
0,636231107361157519
0,636231107361322611
0,636231107361492697
0,636231107361657798
0,636231107361827893
0,636231107361992985
0,636231107362158072
0,636231107362328172
0,636231107362493268
0,636231107362658360
0,636231107362828451
0,636231107362993547
0,636231107363163642
0,636231107363328751
0,636231107363493830
0,636231107363664096
0,636231107363829004
0,636231107363999099
0,636231107364164217
0,636231107364329288
0,636231107364499459
0,636231107364664675
0,636231107364829579
0,636231107364999696
0,636231107365164766
0,636231107365334844
0,636231107365499932
0,636231107365665024
0,636231107365835136
0,636231107366000215
1,636231107366165320
1,636231107366335406
0,636231107366500503
0,636231107366670598
0,636231107366835681
0,636231107367000769
0,636231107367170872
0,636231107367335960
0,636231107367501052
0,636231107367671147
0,636231107367836239
0,636231107368006334
0,636231107368171426
0,636231107368336518
0,636231107368506613
0,636231107368671705
0,636231107368836801
0,636231107369006896
0,636231107369171988
0,636231107369342087
0,636231107369507180
0,636231107369672267
0,636231107369842362
0,636231107370007450
0,636231107370172559
0,636231107370342645
0,636231107370507729
0,636231107370677828
0,636231107370842916
0,636231107371008008
0,636231107371178111
0,636231107371343199
0,636231107371508291
0,636231107371678386
0,636231107371843474
0,636231107372013569
0,636231107372178661
0,636231107372343753
0,636231107372513856
0,636231107372678940
0,636231107372844032
0,636231107373014127
0,636231107373179219
0,636231107373349318
0,636231107373514414
0,636231107373679502
0,636231107373849593
0,636231107374014689
0,636231107374179781
0,636231107374349872
0,636231107374514964
1,636231107374685063
1,636231107374850151
0,636231107375015239
0,636231107375185342
0,636231107375350430
0,636231107375520529
0,636231107375685617
0,636231107375850717
0,636231107376020808
0,636231107376185896
0,636231107376350988
0,636231107376521087
0,636231107376686175
0,636231107376851271
0,636231107377021362
0,636231107377186454
0,636231107377356549
0,636231107377521645
0,636231107377686737
0,636231107377856832
0,636231107378021924
0,636231107378192014
0,636231107378357107
0,636231107378522203
0,636231107378692298
0,636231107378857386
0,636231107379022482
0,636231107379192572
0,636231107379357690
0,636231107379522761
0,636231107379692856
0,636231107379857956
0,636231107380028043
0,636231107380193143
0,636231107380358240
0,636231107380528352
0,636231107380693405
0,636231107380863504
0,636231107381028789
0,636231107381193688
0,636231107381363788
0,636231107381528893
0,636231107381693972
0,636231107381864062
0,636231107382029159
0,636231107382199249
0,636231107382364346
0,636231107382529438
1,636231107382699537
1,636231107382864804
0,636231107383029730
0,636231107383199812
0,636231107383364912
0,636231107383535011
0,636231107383700099
0,636231107383865213
0,636231107384035273
0,636231107384200562
0,636231107384365645
0,636231107384535757
0,636231107384700854
0,636231107384870748
0,636231107385036019
0,636231107385200936
0,636231107385371040
0,636231107385536127
0,636231107385706205
0,636231107385871314
0,636231107386036582
0,636231107386206501
0,636231107386371606
0,636231107386536685
0,636231107386706973
0,636231107386871855
0,636231107387041950
0,636231107387207042
0,636231107387372147
0,636231107387542242
0,636231107387707505
0,636231107387872430
0,636231107388042696
0,636231107388207600
0,636231107388372696
0,636231107388542804
0,636231107388707900
0,636231107388877987
0,636231107389043066
0,636231107389208346
0,636231107389378253
0,636231107389543537
0,636231107389713444
0,636231107389878716
0,636231107390043808
0,636231107390213732
0,636231107390378832
0,636231107390543903
0,636231107390714024
1,636231107390879278
1,636231107391044370
0,636231107391214277
0,636231107391379553
0,636231107391549472
0,636231107391714577
0,636231107391879644
0,636231107392049743
0,636231107392215019
0,636231107392384934
0,636231107392550206
0,636231107392715144
0,636231107392885217
0,636231107393050485
0,636231107393215581
0,636231107393385667
0,636231107393550593
0,636231107393720675
0,636231107393885762
0,636231107394050867
0,636231107394220992
0,636231107394386046
0,636231107394551326
0,636231107394721417
0,636231107394886359
0,636231107395056424
0,636231107395221696
0,636231107395386809
0,636231107395556707
0,636231107395721791
0,636231107395887084
0,636231107396056995
0,636231107396222254
0,636231107396392165
0,636231107396557436
0,636231107396722344
0,636231107396892452
0,636231107397057553
0,636231107397227630
0,636231107397392928
0,636231107397557819
0,636231107397727909
0,636231107397893002
0,636231107398058106
0,636231107398228342
0,636231107398393281
0,636231107398558373
0,636231107398728485
0,636231107398893572
0,636231107399063672
1,636231107399228939
1,636231107399394027
0,636231107399573943
0,636231107399729038
0,636231107399894297
0,636231107400064208
0,636231107400229488
0,636231107400399408
0,636231107400564684
0,636231107400729601
0,636231107400899674
0,636231107401064967
0,636231107401234870
0,636231107401400141
0,636231107401565255
0,636231107401735153
0,636231107401900249
0,636231107402065512
0,636231107402235616
0,636231107402400515
0,636231107402570623
0,636231107402735702
0,636231107402900811
0,636231107403070893
0,636231107403236007
0,636231107403401073
0,636231107403571185
0,636231107403736448
0,636231107403906355
0,636231107404071460
0,636231107404236552
0,636231107404406630
0,636231107404571743
0,636231107404736840
0,636231107404906909
0,636231107405072031
0,636231107405242104
0,636231107405407380
0,636231107405572284
0,636231107405742388
0,636231107405907467
0,636231107406072585
0,636231107406242662
0,636231107406407750
0,636231107406577845
0,636231107406742950
0,636231107406908217
0,636231107407078124
0,636231107407243400
1,636231107407408347
1,636231107407578403
0,636231107407743512
0,636231107407913594
0,636231107408078678
0,636231107408244001
0,636231107408414061
0,636231107408578978
0,636231107408744177
0,636231107408914144
0,636231107409079240
0,636231107409249335
0,636231107409414444
0,636231107409579707
0,636231107409749631
0,636231107409914894
0,636231107410079811
0,636231107410250077
0,636231107410415002
0,636231107410585080
0,636231107410750189
0,636231107410915264
0,636231107411085376
0,636231107411250639
0,636231107411420546
0,636231107411585655
0,636231107411750918
0,636231107411920838
0,636231107412086109
0,636231107412251009
0,636231107412421104
0,636231107412586375
0,636231107412756291
0,636231107412921396
0,636231107413086654
0,636231107413256604
0,636231107413421850
0,636231107413586933
0,636231107413756849
0,636231107413921971
0,636231107414092036
0,636231107414257312
0,636231107414422220
0,636231107414592349
0,636231107414757407
0,636231107414922499
0,636231107415092782
1,636231107415257870
1,636231107415427776
0,636231107415592868
0,636231107415758149
0,636231107415928068
0,636231107416093182
0,636231107416258244
0,636231107416428356
0,636231107416593448
0,636231107416763530
0,636231107416928806
0,636231107417093727
0,636231107417263817
0,636231107417428897
0,636231107417593993
0,636231107417764101
0,636231107417929364
0,636231107418099279
0,636231107418264362
0,636231107418429450
0,636231107418599545
0,636231107418764825
0,636231107418929913
0,636231107419099828
0,636231107419265109
0,636231107419435028
0,636231107419600261
0,636231107419765520
0,636231107419935427
0,636231107420100532
0,636231107420270618
0,636231107420435706
0,636231107420600815
0,636231107420770901
0,636231107420935989
0,636231107421101094
0,636231107421271176
0,636231107421436456
0,636231107421601360
0,636231107421771468
0,636231107421936731
0,636231107422106642
0,636231107422271738
0,636231107422436839
0,636231107422606934
0,636231107422772013
0,636231107422937122
0,636231107423107213
0,636231107423272288
0,636231107423442387
1,636231107423607483
1,636231107423772580
0,636231107423942662
0,636231107424107767
0,636231107424272859
0,636231107424442966
0,636231107424608037
0,636231107424778145
0,636231107424943429
0,636231107425108312
0,636231107425278595
0,636231107425443683
0,636231107425613598
0,636231107425778878
0,636231107425943778
0,636231107426113984
0,636231107426279106
0,636231107426444176
0,636231107426614293
0,636231107426779385
0,636231107426949463
0,636231107427114738
0,636231107427279831
0,636231107427449763
0,636231107427615013
0,636231107427779926
0,636231107427950209
0,636231107428115113
0,636231107428280200
0,636231107428450483
0,636231107428615387
0,636231107428785499
0,636231107428950579
0,636231107429115876
0,636231107429285975
0,636231107429451041
0,636231107429620952
0,636231107429786044
0,636231107429951137
0,636231107430121287
0,636231107430286503
0,636231107430451433
0,636231107430621506
0,636231107430786624
0,636231107430956702
0,636231107431121995
0,636231107431287087
0,636231107431457062
0,636231107431622257
0,636231107431787160
1,636231107431957448
1,636231107432122347
0,636231107432292447
0,636231107432457547
0,636231107432622810
0,636231107432792807
0,636231107432957813
0,636231107433123089
0,636231107433293017
0,636231107433458280
0,636231107433628196
0,636231107433793296
0,636231107433958555
0,636231107434128466
0,636231107434293575
0,636231107434458667
0,636231107434628767
0,636231107434793842
0,636231107434963941
0,636231107435129033
0,636231107435294146
0,636231107435464241
0,636231107435629303
0,636231107435799398
0,636231107435964516
0,636231107436129582
0,636231107436299681
0,636231107436464786
0,636231107436630066
0,636231107436800174
0,636231107436965057
0,636231107437130166
0,636231107437300427
0,636231107437465336
0,636231107437635435
0,636231107437800514
0,636231107437965790
0,636231107438135701
0,636231107438300793
0,636231107438470888
0,636231107438635997
0,636231107438801076
0,636231107438971171
0,636231107439136263
0,636231107439301535
0,636231107439471651
0,636231107439636756
0,636231107439806637
1,636231107439971947
1,636231107440137005
0,636231107440306933
0,636231107440472188
0,636231107440637280
0,636231107440807204
0,636231107440972471
0,636231107441142386
0,636231107441307487
0,636231107441472575
0,636231107441642674
0,636231107441807954
0,636231107441973046
0,636231107442143145
0,636231107442308028
0,636231107442478123
0,636231107442643399
0,636231107442808324
0,636231107442978415
0,636231107443143490
0,636231107443313589
0,636231107443478685
0,636231107443643777
0,636231107443813872
0,636231107443978960
0,636231107444144060
0,636231107444314151
0,636231107444479435
0,636231107444644335
0,636231107444814614
0,636231107444979522
0,636231107445149625
0,636231107445314722
0,636231107445479985
0,636231107445649909
0,636231107445815001
0,636231107445980076
0,636231107446150376
0,636231107446315447
0,636231107446485358
0,636231107446650642
0,636231107446815721
0,636231107446985645
0,636231107447150729
0,636231107447315825
0,636231107447485933
0,636231107447651196
0,636231107447821115
0,636231107447986207
1,636231107448151505
1,636231107448321381
0,636231107448486657
0,636231107448656568
0,636231107448821849
0,636231107448986753
0,636231107449156856
0,636231107449321952
0,636231107449487032
0,636231107449657139
0,636231107449822407
0,636231107449992313
0,636231107450157405
0,636231107450322515
0,636231107450492601
0,636231107450657684
0,636231107450822956
0,636231107450992893
0,636231107451157976
0,636231107451328063
0,636231107451493338
0,636231107451658260
0,636231107451828337
0,636231107451993617
0,636231107452158530
0,636231107452328804
0,636231107452493914
0,636231107452663803
0,636231107452829079
0,636231107452994017
0,636231107453164082
0,636231107453329358
0,636231107453494454
0,636231107453664378
0,636231107453829475
0,636231107453999557
0,636231107454164653
0,636231107454329732
0,636231107454499840
0,636231107454664941
0,636231107454830217
0,636231107455000123
0,636231107455165202
0,636231107455335297
0,636231107455500389
0,636231107455665499
0,636231107455835598
0,636231107456000664
0,636231107456165765
0,636231107456335851
0,636231107456501131
1,636231107456671038
1,636231107456836130
0,636231107457001239
0,636231107457171317
0,636231107457336597
0,636231107457501711
0,636231107457671784
0,636231107457836705
0,636231107458006787
0,636231107458172063
0,636231107458336971
0,636231107458507066
0,636231107458672342
0,636231107458837430
0,636231107459007563
0,636231107459172638
0,636231107459342528
0,636231107459507825
0,636231107459672909
0,636231107459842815
0,636231107460007916
0,636231107460172991
0,636231107460343274
0,636231107460508178
0,636231107460678281
0,636231107460843557
0,636231107461008457
0,636231107461178552
0,636231107461343644
0,636231107461508920
0,636231107461679019
0,636231107461843923
0,636231107462014022
0,636231107462179110
0,636231107462344206
0,636231107462514327
0,636231107462679397
0,636231107462849484
0,636231107463014593
0,636231107463179668
0,636231107463349767
0,636231107463514876
0,636231107463680135
0,636231107463850050
0,636231107464015138
0,636231107464185229
0,636231107464350316
0,636231107464515597
0,636231107464685508
1,636231107464850608
1,636231107465015876
0,636231107465185804
0,636231107465350879
0,636231107465520982
0,636231107465686066
0,636231107465851171
0,636231107466021265
0,636231107466186537
0,636231107466351441
0,636231107466521532
0,636231107466686696
0,636231107466856731
0,636231107467021994
0,636231107467186924
0,636231107467356997
0,636231107467522273
0,636231107467687365
0,636231107467857469
0,636231107468022561
0,636231107468192463
0,636231107468357573
0,636231107468522831
0,636231107468692815
0,636231107468857843
0,636231107469022944
0,636231107469193158
0,636231107469358135
0,636231107469528208
0,636231107469693318
0,636231107469858397
0,636231107470028487
0,636231107470193763
0,636231107470358864
0,636231107470528783
0,636231107470693880
0,636231107470863958
0,636231107471029062
0,636231107471194321
0,636231107471364232
0,636231107471529324
0,636231107471694605
0,636231107471864511
0,636231107472029603
0,636231107472199698
0,636231107472364978
0,636231107472530071
0,636231107472700165
0,636231107472865082
1,636231107473035164
1,636231107473200273
0,636231107473365365
0,636231107473535443
0,636231107473700719
0,636231107473865640
0,636231107474035927
0,636231107474200831
0,636231107474370909
0,636231107474536185
0,636231107474701106
0,636231107474871205
0,636231107475036293
0,636231107475201398
0,636231107475371476
0,636231107475536559
0,636231107475706663
0,636231107475871939
0,636231107476037026
0,636231107476206950
0,636231107476372038
0,636231107476537305
0,636231107476707212
0,636231107476872325
0,636231107477042399
0,636231107477207504
0,636231107477372587
0,636231107477542678
0,636231107477707958
0,636231107477872862
0,636231107478042961
0,636231107478208049
0,636231107478378144
0,636231107478543424
0,636231107478708345
0,636231107478878504
0,636231107479043703
0,636231107479208795
0,636231107479378719
0,636231107479543798
0,636231107479713893
0,636231107479879203
0,636231107480044073
0,636231107480214168
0,636231107480379260
0,636231107480544365
0,636231107480714631
0,636231107480879727
0,636231107481049634
0,636231107481214722
1,636231107481380006
1,636231107481549921
0,636231107481715018
0,636231107481880110
0,636231107482050418
0,636231107482215472
0,636231107482385392
0,636231107482550471
0,636231107482715580
0,636231107482885850
0,636231107483050750
0,636231107483220845
0,636231107483386121
0,636231107483551050
0,636231107483721132
0,636231107483886400
0,636231107484051496
0,636231107484221411
0,636231107484386516
0,636231107484556590
0,636231107484721682
0,636231107484886791
0,636231107485056881
0,636231107485222149
0,636231107485387048
0,636231107485557152
0,636231107485722428
0,636231107485887345
0,636231107486057610
0,636231107486222519
0,636231107486392665
0,636231107486557706
0,636231107486722815
0,636231107486893085
0,636231107487058186
0,636231107487228079
0,636231107487393360
0,636231107487558268
0,636231107487728358
0,636231107487893476
0,636231107488058632
0,636231107488228642
0,636231107488393918
0,636231107488563893
0,636231107488729105
0,636231107488894017
0,636231107489064112
0,636231107489229384
1,636231107489394484
1,636231107489564382
0,636231107489729474
0,636231107489899574
0,636231107490064661
0,636231107490229937
0,636231107490399857
0,636231107490564940
0,636231107490730058
0,636231107490900311
0,636231107491065219
0,636231107491235314
0,636231107491400432
0,636231107491565498
0,636231107491735602
0,636231107491900869
0,636231107492065794
0,636231107492236077
0,636231107492401148
0,636231107492571059
0,636231107492736151
0,636231107492901260
0,636231107493071338
0,636231107493236610
0,636231107493401522
0,636231107493571801
0,636231107493736893
0,636231107493906813
0,636231107494072080
0,636231107494237172
0,636231107494407083
0,636231107494572175
0,636231107494737451
0,636231107494907379
0,636231107495072642
0,636231107495242553
0,636231107495407645
0,636231107495572742
0,636231107495742926
0,636231107495907937
0,636231107496078015
0,636231107496243116
0,636231107496408199
0,636231107496578397
0,636231107496743382
0,636231107496908478
1,636231107497078573
1,636231107497243853
0,636231107497408757
0,636231107497579040
0,636231107497744128
0,636231107497914039
0,636231107498079152
0,636231107498244232
0,636231107498414647
0,636231107498579756
0,636231107498744831
0,636231107498914948
0,636231107499080202
0,636231107499250117
0,636231107499415218
0,636231107499580297
0,636231107499750392
0,636231107499915506
0,636231107500085579
0,636231107500250859
0,636231107500415947
0,636231107500585862
0,636231107500750971
0,636231107500916235
0,636231107501086137
0,636231107501251233
0,636231107501416509
0,636231107501586604
0,636231107501751692
0,636231107501921620
0,636231107502086879
0,636231107502251787
0,636231107502421882
0,636231107502586978
0,636231107502752070
0,636231107502922161
0,636231107503087253
0,636231107503257348
0,636231107503422449
0,636231107503587532
0,636231107503757631
0,636231107503922740
0,636231107504092814
0,636231107504257919
0,636231107504422998
0,636231107504593097
1,636231107504758189
1,636231107504923290
0,636231107505093581
0,636231107505258682
0,636231107505428559
0,636231107505593848
0,636231107505758760
0,636231107505928846
0,636231107506093951
0,636231107506264025
0,636231107506429305
0,636231107506594222
0,636231107506764308
0,636231107506929417
0,636231107507094706
0,636231107507264591
0,636231107507429705
0,636231107507594946
0,636231107507764866
0,636231107507930142
0,636231107508100049
0,636231107508265145
0,636231107508430233
0,636231107508600332
0,636231107508765424
0,636231107508930516
0,636231107509100615
0,636231107509265729
0,636231107509435794
0,636231107509600890
0,636231107509766008
0,636231107509936081
0,636231107510101344
0,636231107510266257
0,636231107510436540
0,636231107510601628
0,636231107510771539
0,636231107510936635
0,636231107511101723
0,636231107511272027
0,636231107511437098
0,636231107511602002
0,636231107511772276
0,636231107511937390
0,636231107512107292
0,636231107512272376
0,636231107512437651
0,636231107512607567
1,636231107512772655
1,636231107512942754
0,636231107513108034
0,636231107513272934
0,636231107513443028
0,636231107513608120
0,636231107513773392
0,636231107513943307
0,636231107514108395
0,636231107514278490
0,636231107514443770
0,636231107514608691
0,636231107514778786
0,636231107514944058
0,636231107515108966
0,636231107515279065
0,636231107515444354
0,636231107515614239
0,636231107515779344
0,636231107515944428
0,636231107516114595
0,636231107516279610
0,636231107516444724
0,636231107516614810
0,636231107516780069
0,636231107516949984
0,636231107517115081
0,636231107517280164
0,636231107517450263
0,636231107517615355
0,636231107517780627
0,636231107517950559
0,636231107518115630
0,636231107518285729
0,636231107518450821
0,636231107518615926
0,636231107518786017
0,636231107518951113
0,636231107519116197
0,636231107519286296
0,636231107519451396
0,636231107519621487
0,636231107519786771
0,636231107519951684
0,636231107520121762
0,636231107520286862
0,636231107520452130
1,636231107520622045
1,636231107520787146
0,636231107520957219
0,636231107521122324
0,636231107521287420
0,636231107521457494
0,636231107521622590
0,636231107521787896
0,636231107521957790
0,636231107522123057
0,636231107522292964
0,636231107522458240
0,636231107522623328
0,636231107522793251
0,636231107522958348
0,636231107523123619
0,636231107523293518
0,636231107523458798
0,636231107523628705
0,636231107523793985
0,636231107523959077
0,636231107524129086
0,636231107524294080
0,636231107524459176
0,636231107524629267
0,636231107524794543
0,636231107524964454
0,636231107525129563
0,636231107525294822
0,636231107525464874
0,636231107525629842
0,636231107525794938
0,636231107525965213
0,636231107526130117
0,636231107526300310
0,636231107526465287
0,636231107526630379
0,636231107526800662
0,636231107526965749
0,636231107527135669
0,636231107527300936
0,636231107527465849
0,636231107527635944
0,636231107527801031
0,636231107527966162
0,636231107528136436
1,636231107528301499
1,636231107528471410
0,636231107528636519
0,636231107528801589
0,636231107528971791
0,636231107529136793
0,636231107529301868
0,636231107529471985
0,636231107529637239
0,636231107529807172
0,636231107529972277
0,636231107530137339
0,636231107530307434
0,636231107530472705
0,636231107530637618
0,636231107530807896
0,636231107530972817
0,636231107531142899
0,636231107531308004
0,636231107531473263
0,636231107531643178
0,636231107531808292
0,636231107531973367
0,636231107532143453
0,636231107532308562
0,636231107532478657
0,636231107532643736
0,636231107532808829
0,636231107532978970
0,636231107533144015
0,636231107533309291
0,636231107533479211
0,636231107533644307
0,636231107533814406
0,636231107533979477
0,636231107534144582
0,636231107534314771
0,636231107534479760
0,636231107534645071
0,636231107534815161
0,636231107534980039
0,636231107535150134
0,636231107535315243
0,636231107535480314
0,636231107535650413
0,636231107535815698
0,636231107535980777
1,636231107536150701
1,636231107536315797
0,636231107536485883
0,636231107536650993
0,636231107536816251
0,636231107536986346
0,636231107537151267
0,636231107537321345
0,636231107537486433
0,636231107537651542
0,636231107537821628
0,636231107537986904
0,636231107538151992
0,636231107538321920
0,636231107538486995
0,636231107538652104
0,636231107538822396
0,636231107538987492
0,636231107539157369
0,636231107539322461
0,636231107539487553
0,636231107539657661
0,636231107539822920
0,636231107539992835
0,636231107540158107
0,636231107540323032
0,636231107540493165
0,636231107540658210
0,636231107540823315
0,636231107540993577
0,636231107541158665
0,636231107541328588
0,636231107541493856
0,636231107541658785
0,636231107541828915
0,636231107541993955
0,636231107542159231
0,636231107542329330
0,636231107542494410
0,636231107542664325
0,636231107542829417
0,636231107542994522
0,636231107543164604
0,636231107543329730
0,636231107543494788
0,636231107543665071
0,636231107543830155
0,636231107544000070
0,636231107544165158
1,636231107544330434
1,636231107544500460
0,636231107544665437
0,636231107544830550
0,636231107545000624
0,636231107545165737
0,636231107545335815
0,636231107545500903
0,636231107545666187
0,636231107545836094
0,636231107546001370
0,636231107546166278
0,636231107546336557
0,636231107546501482
0,636231107546671560
0,636231107546836831
0,636231107547001744
0,636231107547171852
0,636231107547337132
0,636231107547507038
0,636231107547672323
0,636231107547837227
0,636231107548007322
0,636231107548172410
0,636231107548337493
0,636231107548507763
0,636231107548672855
0,636231107548842771
0,636231107549007880
0,636231107549173147
0,636231107549343062
0,636231107549508142
0,636231107549673251
0,636231107549843508
0,636231107550008438
0,636231107550178515
0,636231107550343791
0,636231107550508883
0,636231107550678794
0,636231107550844070
0,636231107551008987
0,636231107551179121
0,636231107551344345
0,636231107551514260
0,636231107551679558
0,636231107551844445
0,636231107552014638
0,636231107552179815
1,636231107552344907
1,636231107552514998
0,636231107552680094
0,636231107552850005
0,636231107553015110
0,636231107553180194
0,636231107553350289
0,636231107553515556
0,636231107553680473
0,636231107553850576
0,636231107554015844
0,636231107554185763
0,636231107554350838
0,636231107554515952
0,636231107554686038
0,636231107554851121
0,636231107555016397
0,636231107555186325
0,636231107555351400
0,636231107555521499
0,636231107555686587
0,636231107555851696
0,636231107556021783
0,636231107556187050
0,636231107556352142
0,636231107556522237
0,636231107556687158
0,636231107556857240
0,636231107557022345
0,636231107557187424
0,636231107557357519
0,636231107557522607
0,636231107557687725
0,636231107557857811
0,636231107558022903
0,636231107558192985
0,636231107558358077
0,636231107558523182
0,636231107558693290
0,636231107558858373
0,636231107559028451
0,636231107559193727
0,636231107559358631
0,636231107559528734
0,636231107559693826
0,636231107559859098
1,636231107560029112
1,636231107560194101
0,636231107560359386
0,636231107560529284
0,636231107560694560
0,636231107560864475
0,636231107561029751
0,636231107561194843
0,636231107561364763
0,636231107561529859
0,636231107561699937
0,636231107561865050
0,636231107562030125
0,636231107562200271
0,636231107562365521
0,636231107562530618
0,636231107562700683
0,636231107562865775
0,636231107563035686
0,636231107563200957
0,636231107563366058
0,636231107563535978
0,636231107563701245
0,636231107563866153
0,636231107564036346
0,636231107564201520
0,636231107564371444
0,636231107564536702
0,636231107564701611
0,636231107564871723
0,636231107565036815
0,636231107565201907
0,636231107565372173
0,636231107565537282
0,636231107565707176
0,636231107565872272
0,636231107566037539
0,636231107566207468
0,636231107566372547
0,636231107566537643
0,636231107566707918
0,636231107566872826
0,636231107567042933
0,636231107567208197
0,636231107567373289
0,636231107567543200
0,636231107567708484
0,636231107567873568
0,636231107568043483
0,636231107568208571
1,636231107568378666
1,636231107568543779
0,636231107568708845
0,636231107568878940
0,636231107569044058
0,636231107569214131
0,636231107569379403
0,636231107569544333
0,636231107569714406
0,636231107569879691
0,636231107570044599
0,636231107570214779
0,636231107570379970
0,636231107570544886
0,636231107570715148
0,636231107570880073
0,636231107571050155
0,636231107571215260
0,636231107571380352
0,636231107571550430
0,636231107571715544
0,636231107571880811
0,636231107572050713
0,636231107572215831
0,636231107572385900
0,636231107572550988
0,636231107572716268
0,636231107572886368
0,636231107573051284
0,636231107573216359
0,636231107573386463
0,636231107573551563
0,636231107573721692
0,636231107573886737
0,636231107574052013
0,636231107574221941
0,636231107574387012
0,636231107574552121
0,636231107574722199
0,636231107574887505
0,636231107575057399
0,636231107575222478
0,636231107575387763
0,636231107575557682
0,636231107575722941
0,636231107575892852
0,636231107576057948
0,636231107576223053
1,636231107576393135
1,636231107576558236
0,636231107576723503
0,636231107576893414
0,636231107577058506
0,636231107577228601
0,636231107577393706
0,636231107577558781
0,636231107577728880
0,636231107577893985
0,636231107578059081
0,636231107578229347
0,636231107578394435
0,636231107578564346
0,636231107578729438
0,636231107578894714
0,636231107579064634
0,636231107579229717
0,636231107579394993
0,636231107579564921
0,636231107579729996
0,636231107579900091
0,636231107580065375
0,636231107580230459
0,636231107580400468
0,636231107580565479
0,636231107580730567
0,636231107580900837
0,636231107581065929
0,636231107581235849
0,636231107581401116
0,636231107581566208
0,636231107581736111
0,636231107581901395
0,636231107582066312
0,636231107582236582
0,636231107582401670
0,636231107582571581
0,636231107582736677
0,636231107582901765
0,636231107583071873
0,636231107583236952
0,636231107583402082
0,636231107583572152
0,636231107583737235
0,636231107583907321
0,636231107584072418
1,636231107584237506
1,636231107584407626
0,636231107584572693
0,636231107584737793
0,636231107584907897
0,636231107585072984
0,636231107585243075
0,636231107585408176
0,636231107585573272
0,636231107585743538
0,636231107585908455
0,636231107586078537
0,636231107586243650
0,636231107586408734
0,636231107586578828
0,636231107586743912
0,636231107586909025
0,636231107587079137
0,636231107587244208
0,636231107587414282
0,636231107587579395
0,636231107587744466
0,636231107587914573
0,636231107588079841
0,636231107588244745
0,636231107588414840
0,636231107588580116
0,636231107588750022
0,636231107588915114
0,636231107589080206
0,636231107589250310
0,636231107589415415
0,636231107589580502
0,636231107589750597
0,636231107589915860
0,636231107590085780
0,636231107590250859
0,636231107590416139
0,636231107590586050
0,636231107590751326
0,636231107590916235
0,636231107591086325
0,636231107591251422
0,636231107591421525
0,636231107591586814
0,636231107591751910
1,636231107591921804
1,636231107592086883
0,636231107592252159
0,636231107592422258
0,636231107592587355
0,636231107592757261
0,636231107592922537
0,636231107593087638
0,636231107593257566
0,636231107593422637
0,636231107593592727
0,636231107593758025
0,636231107593922911
0,636231107594093023
0,636231107594258098
0,636231107594423203
0,636231107594593298
0,636231107594758373
0,636231107594928472
0,636231107595093560
0,636231107595258669
0,636231107595428764
0,636231107595593848
0,636231107595759145
0,636231107595929214
0,636231107596094127
0,636231107596264217
0,636231107596429309
0,636231107596594589
0,636231107596764496
0,636231107596929588
0,636231107597094864
0,636231107597264959
0,636231107597429867
0,636231107597599971
0,636231107597765242
0,636231107597930364
0,636231107598100339
0,636231107598265329
0,636231107598430686
0,636231107598600593
0,636231107598765689
0,636231107598935784
0,636231107599100889
0,636231107599266186
0,636231107599436076
0,636231107599601155
0,636231107599766268
1,636231107599936522
1,636231107600101639
0,636231107600271529
0,636231107600436638
0,636231107600601897
0,636231107600771812
0,636231107600937084
0,636231107601102180
0,636231107601272275
0,636231107601437196
0,636231107601607278
0,636231107601772387
0,636231107601937479
0,636231107602107549
0,636231107602272863
0,636231107602437942
0,636231107602608016
0,636231107602773108
0,636231107602943019
0,636231107603108290
0,636231107603273387
0,636231107603443306
0,636231107603608582
0,636231107603773486
0,636231107603943598
0,636231107604108682
0,636231107604278785
0,636231107604443873
0,636231107604609132
0,636231107604779064
0,636231107604944148
0,636231107605109231
0,636231107605279317
0,636231107605444414
0,636231107605614509
0,636231107605779802
0,636231107605944697
0,636231107606114788
0,636231107606280085
0,636231107606444972
0,636231107606615079
0,636231107606780347
0,636231107606950254
0,636231107607115346
0,636231107607280622
0,636231107607450533
1,636231107607615813
1,636231107607780738
0,636231107607950829
0,636231107608115912
0,636231107608285998
0,636231107608451108
0,636231107608616178
0,636231107608786513
0,636231107608951387
0,636231107609116667
0,636231107609286556
0,636231107609451644
0,636231107609621893
0,636231107609786998
0,636231107609952094
0,636231107610122193
0,636231107610287294
0,636231107610452386
0,636231107610622468
0,636231107610787744
0,636231107610957664
0,636231107611122927
0,636231107611287835
0,636231107611457934
0,636231107611623030
0,636231107611793121
0,636231107611958397
0,636231107612123493
0,636231107612293413
0,636231107612458505
0,636231107612623794
0,636231107612793696
0,636231107612958767
0,636231107613128870
0,636231107613293971
0,636231107613459063
0,636231107613629158
0,636231107613794254
0,636231107613959325
0,636231107614129616
0,636231107614294520
0,636231107614464611
0,636231107614629716
0,636231107614795000
0,636231107614964984
1,636231107615129995
1,636231107615295074
0,636231107615465169
0,636231107615630261
0,636231107615800356
0,636231107615965632
0,636231107616130553
0,636231107616300648
0,636231107616465744
0,636231107616631024
0,636231107616800927
0,636231107616966010
0,636231107617136105
0,636231107617301193
0,636231107617466302
0,636231107617636388
0,636231107617801468
0,636231107617966564
0,636231107618136655
0,636231107618301768
0,636231107618471846
0,636231107618636934
0,636231107618802030
0,636231107618972133
0,636231107619137238
0,636231107619302309
0,636231107619472588
0,636231107619637607
0,636231107619807591
0,636231107619972696
0,636231107620137775
0,636231107620307878
0,636231107620473052
0,636231107620638054
0,636231107620808354
0,636231107620973425
0,636231107621143336
0,636231107621308440
0,636231107621473520
0,636231107621643657
0,636231107621808719
0,636231107621973812
0,636231107622143906
0,636231107622309170
0,636231107622479081
1,636231107622644173
1,636231107622809282
0,636231107622979364
0,636231107623144447
0,636231107623309561
0,636231107623479660
0,636231107623644748
0,636231107623815009
0,636231107623980110
0,636231107624145074
0,636231107624315246
0,636231107624480197
0,636231107624645301
0,636231107624815392
0,636231107624980664
0,636231107625150588
0,636231107625315662
0,636231107625485757
0,636231107625650862
0,636231107625815954
0,636231107625986036
0,636231107626151312
0,636231107626316233
0,636231107626486332
0,636231107626651587
0,636231107626816679
0,636231107626986599
0,636231107627151879
0,636231107627321781
0,636231107627486878
0,636231107627652145
0,636231107627822069
0,636231107627987336
0,636231107628152437
0,636231107628322335
0,636231107628487448
0,636231107628657526
0,636231107628822618
0,636231107628987719
0,636231107629157835
0,636231107629323107
0,636231107629488002
0,636231107629658084
0,636231107629823364
0,636231107629993271
0,636231107630158547
0,636231107630323639
0,636231107630493747
1,636231107630658826
1,636231107630823756
0,636231107630993833
0,636231107631158925
0,636231107631329016
0,636231107631494130
0,636231107631659405
0,636231107631829295
0,636231107631994404
0,636231107632164482
0,636231107632329587
0,636231107632494846
0,636231107632664761
0,636231107632830037
0,636231107632994941
0,636231107633165044
0,636231107633330141
0,636231107633495404
0,636231107633665524
0,636231107633830420
0,636231107634000506
0,636231107634165611
0,636231107634330699
0,636231107634500785
0,636231107634665890
0,636231107634831153
0,636231107635001064
0,636231107635166336
0,636231107635336255
0,636231107635501527
0,636231107635666619
0,636231107635836538
0,636231107636001810
0,636231107636166894
0,636231107636336835
0,636231107636502081
0,636231107636672009
0,636231107636837285
0,636231107637002364
0,636231107637172271
0,636231107637337388
0,636231107637502480
0,636231107637672738
0,636231107637837659
0,636231107638007758
0,636231107638172829
0,636231107638337933
0,636231107638508208
1,636231107638673112
1,636231107638843211
0,636231107639008299
0,636231107639173391
0,636231107639343537
0,636231107639508599
0,636231107639673674
0,636231107639843765
0,636231107640008874
0,636231107640178969
0,636231107640344057
0,636231107640509320
0,636231107640679243
0,636231107640844318
0,636231107641009564
0,636231107641179693
0,636231107641344619
0,636231107641514697
0,636231107641679972
0,636231107641845082
0,636231107642015040
0,636231107642180063
0,636231107642345155
0,636231107642515434
0,636231107642680530
0,636231107642850446
0,636231107643015529
0,636231107643180814
0,636231107643350836
0,636231107643515817
0,636231107643680917
0,636231107643851012
0,636231107644016100
0,636231107644186186
0,636231107644351505
0,636231107644516366
0,636231107644686474
0,636231107644851579
0,636231107645016829
0,636231107645186928
0,636231107645352020
0,636231107645521940
0,636231107645687203
0,636231107645852133
1,636231107646022227
1,636231107646187324
0,636231107646357397
0,636231107646522511
0,636231107646687594
0,636231107646857676
0,636231107647022948
0,636231107647187869
0,636231107647358139
0,636231107647523231
0,636231107647693142
0,636231107647858247
0,636231107648023335
0,636231107648193434
0,636231107648358509
0,636231107648523618
0,636231107648693700
0,636231107648858788
0,636231107649028887
0,636231107649193996
0,636231107649359084
0,636231107649529166
0,636231107649694280
0,636231107649859530
0,636231107650029454
0,636231107650194537
0,636231107650364628
0,636231107650529728
0,636231107650694833
0,636231107650864911
0,636231107651030183
0,636231107651195288
0,636231107651365383
0,636231107651530466
0,636231107651700377
0,636231107651865486
0,636231107652030565
0,636231107652200665
0,636231107652365778
0,636231107652530836
0,636231107652701127
0,636231107652866544
0,636231107653031440
0,636231107653201552
0,636231107653366815
0,636231107653536722
0,636231107653701998
0,636231107653866914
1,636231107654037189
1,636231107654202110
0,636231107654367185
0,636231107654537288
0,636231107654702372
0,636231107654872484
0,636231107655037772
0,636231107655202877
0,636231107655372763
0,636231107655537855
0,636231107655707937
0,636231107655873208
0,636231107656038129
0,636231107656208216
0,636231107656373496
0,636231107656538417
0,636231107656708512
0,636231107656873604
0,636231107657043682
0,636231107657208770
0,636231107657374058
0,636231107657543974
0,636231107657709049
0,636231107657874329
0,636231107658044235
0,636231107658209520
0,636231107658379427
0,636231107658544698
0,636231107658709607
0,636231107658879714
0,636231107659044793
0,636231107659210074
0,636231107659380002
0,636231107659545094
0,636231107659715172
0,636231107659880448
0,636231107660045535
0,636231107660215459
0,636231107660380722
0,636231107660545819
0,636231107660715841
0,636231107660880830
0,636231107661050921
0,636231107661216192
0,636231107661381122
0,636231107661551302
1,636231107661716467
1,636231107661881576
0,636231107662051658
0,636231107662216746
0,636231107662386661
0,636231107662551933
0,636231107662717051
0,636231107662886945
0,636231107663052050
0,636231107663222157
0,636231107663387232
0,636231107663552316
0,636231107663722415
0,636231107663887498
0,636231107664052608
0,636231107664222698
0,636231107664387777
0,636231107664557872
0,636231107664722960
0,636231107664888236
0,636231107665058151
0,636231107665223248
0,636231107665393343
0,636231107665558430
0,636231107665723527
0,636231107665893617
0,636231107666058889
0,636231107666223990
0,636231107666393909
0,636231107666559001
0,636231107666724260
0,636231107666894355
0,636231107667059302
0,636231107667224359
0,636231107667394471
0,636231107667559555
0,636231107667729641
0,636231107667894733
0,636231107668060031
0,636231107668229933
0,636231107668395209
0,636231107668565107
0,636231107668730212
0,636231107668895304
0,636231107669065399
1,636231107669230478
1,636231107669395570
0,636231107669565665
0,636231107669730783
0,636231107669900865
0,636231107670065957
0,636231107670231053
0,636231107670401140
0,636231107670566219
0,636231107670731315
0,636231107670901590
0,636231107671066515
0,636231107671231607
0,636231107671401869
0,636231107671566785
0,636231107671736889
0,636231107671902178
0,636231107672067073
0,636231107672237335
0,636231107672402431
0,636231107672572346
0,636231107672737443
0,636231107672902543
0,636231107673072621
0,636231107673237713
0,636231107673407808
0,636231107673572900
0,636231107673737988
0,636231107673908104
0,636231107674073209
0,636231107674238455
0,636231107674408550
0,636231107674573646
0,636231107674738567
0,636231107674908658
0,636231107675073921
0,636231107675243845
0,636231107675409112
0,636231107675574029
0,636231107675744136
0,636231107675909211
0,636231107676074496
0,636231107676244403
0,636231107676409495
1,636231107676579598
1,636231107676744682
0,636231107676909757
0,636231107677079856
0,636231107677244961
0,636231107677415043
0,636231107677580130
0,636231107677745235
0,636231107677915407
0,636231107678080409
0,636231107678245737
0,636231107678415596
0,636231107678580688
0,636231107678750788
0,636231107678916059
0,636231107679080967
0,636231107679251131
0,636231107679416338
0,636231107679581251
0,636231107679751354
0,636231107679916626
0,636231107680086533
0,636231107680251637
0,636231107680416734
0,636231107680586824
0,636231107680751899
0,636231107680917180
0,636231107681087103
0,636231107681252366
0,636231107681422277
0,636231107681587387
0,636231107681757464
0,636231107681922569
0,636231107682087661
0,636231107682252946
0,636231107682423054
0,636231107682588141
0,636231107682758035
0,636231107682923114
0,636231107683088390
0,636231107683258301
0,636231107683423573
0,636231107683588498
0,636231107683758593
0,636231107683923677
0,636231107684093772
0,636231107684258877
0,636231107684424157
1,636231107684594042
1,636231107684759160
0,636231107684924226
0,636231107685094342
0,636231107685259435
0,636231107685429512
0,636231107685594784
0,636231107685759880
0,636231107685929821
0,636231107686094892
0,636231107686259980
0,636231107686430083
0,636231107686595175
0,636231107686765257
0,636231107686930529
0,636231107687095625
0,636231107687265532
0,636231107687430650
0,636231107687595900
0,636231107687765995
0,636231107687930903
0,636231107688100998
0,636231107688266094
0,636231107688431195
0,636231107688601277
0,636231107688766587
0,636231107688931487
0,636231107689101744
0,636231107689266648
0,636231107689436747
0,636231107689602023
0,636231107689767111
0,636231107689937022
0,636231107690102302
0,636231107690272213
0,636231107690437489
0,636231107690602410
0,636231107690772501
0,636231107690937802
0,636231107691102672
0,636231107691272951
0,636231107691437863
0,636231107691607958
0,636231107691773230
0,636231107691938326
0,636231107692108246
1,636231107692273325
1,636231107692438421
0,636231107692608516
0,636231107692773792
0,636231107692943716
0,636231107693109004
0,636231107693274071
0,636231107693444161
0,636231107693609087
0,636231107693774346
0,636231107693944449
0,636231107694109537
0,636231107694279448
0,636231107694444685
0,636231107694609636
0,636231107694779727
0,636231107694944819
0,636231107695114914
0,636231107695280019
0,636231107695445282
0,636231107695615193
0,636231107695780281
0,636231107695945373
0,636231107696115472
0,636231107696280743
0,636231107696445835
0,636231107696615759
0,636231107696781027
0,636231107696950938
0,636231107697116043
0,636231107697281306
0,636231107697451225
0,636231107697616322
0,636231107697781414
0,636231107697951491
0,636231107698116776
0,636231107698286683
0,636231107698451770
0,636231107698616867
0,636231107698786966
0,636231107698952238
0,636231107699117338
0,636231107699287258
0,636231107699452346
1,636231107699622428
1,636231107699787520
0,636231107699952791
0,636231107700122737
0,636231107700287811
0,636231107700452895
0,636231107700622986
0,636231107700788086
0,636231107700958173
0,636231107701123470
0,636231107701288357
0,636231107701458464
0,636231107701623539
0,636231107701793638
0,636231107701958743
0,636231107702123844
0,636231107702293939
0,636231107702459005
0,636231107702624114
0,636231107702794376
0,636231107702959293
0,636231107703124385
0,636231107703294488
0,636231107703459563
0,636231107703629679
0,636231107703794938
0,636231107703960035
0,636231107704129954
0,636231107704295217
0,636231107704465128
0,636231107704630409
0,636231107704795496
0,636231107704965416
0,636231107705130499
0,636231107705295797
0,636231107705465691
0,636231107705630962
0,636231107705800890
0,636231107705966158
0,636231107706131070
0,636231107706301204
0,636231107706466424
0,636231107706631345
0,636231107706801615
0,636231107706966536
0,636231107707136622
0,636231107707301706
1,636231107707466815
1,636231107707636897
0,636231107707801989
0,636231107707967090
0,636231107708137360
0,636231107708302268
0,636231107708472419
0,636231107708637455
0,636231107708802547
0,636231107708972642
0,636231107709137914
0,636231107709307833
0,636231107709472917
0,636231107709638218
0,636231107709808108
0,636231107709973422
0,636231107710138472
0,636231107710308571
0,636231107710473663
0,636231107710638755
0,636231107710808850
0,636231107710973758
0,636231107711143857
0,636231107711309133
0,636231107711474037
0,636231107711644337
0,636231107711809241
0,636231107711979315
0,636231107712144420
0,636231107712309512
0,636231107712479594
0,636231107712644870
0,636231107712809782
0,636231107712980835
0,636231107713145940
0,636231107713311019
0,636231107713481118
0,636231107713646398
0,636231107713811315
0,636231107713981594
0,636231107714146481
0,636231107714316580
0,636231107714481685
0,636231107714646764
0,636231107714816897
0,636231107714981964
0,636231107715152046
0,636231107715317150
1,636231107715482234
1,636231107715652325
0,636231107715817425
0,636231107715982688
0,636231107716152612
0,636231107716317708
0,636231107716482788
0,636231107716652900
0,636231107716818154
0,636231107716988070
0,636231107717153179
0,636231107717318249
0,636231107717488494
0,636231107717653458
0,636231107717818717
0,636231107717988640
0,636231107718153720
0,636231107718323814
0,636231107718488924
0,636231107718653994
0,636231107718824111
0,636231107718989374
0,636231107719154282
0,636231107719324385
0,636231107719489644
0,636231107719659564
0,636231107719824673
0,636231107719989769
0,636231107720159847
0,636231107720324943
0,636231107720490206
0,636231107720660130
0,636231107720825231
0,636231107720995321
0,636231107721160550
0,636231107721325488
0,636231107721495596
0,636231107721660688
0,636231107721830770
0,636231107721995862
0,636231107722160950
0,636231107722331054
0,636231107722496342
0,636231107722661233
0,636231107722831422
0,636231107722996420
0,636231107723166515
0,636231107723331620
1,636231107723496708
1,636231107723666803
0,636231107723831895
0,636231107723996987
0,636231107724167086
0,636231107724332345
0,636231107724502260
0,636231107724667536
0,636231107724832444
0,636231107725002548
0,636231107725167644
0,636231107725332911
0,636231107725502835
0,636231107725667923
0,636231107725838005
0,636231107726003101
0,636231107726168373
0,636231107726338288
0,636231107726503376
0,636231107726668468
0,636231107726838768
0,636231107727003668
0,636231107727173754
0,636231107727338855
0,636231107727504118
0,636231107727674187
0,636231107727839305
0,636231107728004213
