74,636231107176146455
74,636231107176316550
74,636231107176481659
74,636231107176646918
74,636231107176817017
74,636231107176981934
74,636231107177147197
74,636231107177317108
74,636231107177482200
74,636231107177652303
74,636231107177817395
74,636231107177982551
74,636231107178152792
74,636231107178317683
74,636231107178482813
74,636231107178653037
74,636231107178817949
74,636231107178988044
74,636231107179153136
74,636231107179318412
74,636231107179488323
74,636231107179653432
74,636231107179823527
74,636231107179988623
74,636231107180153711
74,636231107180323806
74,636231107180488885
74,636231107180654157
74,636231107180824252
74,636231107180989348
74,636231107181159250
74,636231107181324539
74,636231107181489447
74,636231107181659547
74,636231107181824634
74,636231107181989718
74,636231107182159834
74,636231107182325114
74,636231107182495000
74,636231107182660276
74,636231107182825197
74,636231107182995291
74,636231107183160388
74,636231107183325642
74,636231107183495566
74,636231107183660641
74,636231107183830740
74,636231107183995858
74,636231107184160933
74,636231107184331169
74,636231107184496111
74,636231107184661203
74,636231107184831491
74,636231107184996579
74,636231107185166490
74,636231107185331765
74,636231107185496858
74,636231107185666957
74,636231107185832040
74,636231107185996970
74,636231107186167060
74,636231107186332341
74,636231107186502234
74,636231107186667545
74,636231107186832431
74,636231107187002509
74,636231107187167618
74,636231107187337696
74,636231107187502792
74,636231107187667885
74,636231107187837979
74,636231107188003084
74,636231107188168352
74,636231107188338455
74,636231107188503556
74,636231107188668639
74,636231107188838909
74,636231107189003826
74,636231107189173908
74,636231107189339188
74,636231107189504105
74,636231107189674243
74,636231107189839275
74,636231107190004371
74,636231107190174650
74,636231107190339563
74,636231107190509649
74,636231107190674741
74,636231107190840021
74,636231107191010125
74,636231107191175204
74,636231107191340300
74,636231107191510395
74,636231107191675487
74,636231107191845398
74,636231107192010670
74,636231107192175599
74,636231107192345686
74,636231107192510949
74,636231107192680860
74,636231107192845973
74,636231107193011044
74,636231107193181160
74,636231107193346231
74,636231107193511327
74,636231107193681602
74,636231107193846694
74,636231107194011615
74,636231107194181710
74,636231107194346802
74,636231107194516888
74,636231107194682190
74,636231107194847277
74,636231107195017175
74,636231107195182272
74,636231107195352350
74,636231107195517626
74,636231107195682726
74,636231107195852624
74,636231107196017738
74,636231107196182997
74,636231107196352920
74,636231107196518008
74,636231107196688095
74,636231107196853187
74,636231107197018292
74,636231107197188472
74,636231107197353466
74,636231107197518571
74,636231107197688836
74,636231107197853762
74,636231107198023839
74,636231107198189115
74,636231107198354028
74,636231107198524118
74,636231107198689219
74,636231107198854486
74,636231107199024611
74,636231107199189502
74,636231107199359584
74,636231107199524689
74,636231107199689773
74,636231107199859932
74,636231107200024973
74,636231107200190231
74,636231107200360326
74,636231107200525440
74,636231107200695334
74,636231107200860417
74,636231107201025723
74,636231107201195630
74,636231107201360889
74,636231107201525831
74,636231107201696071
74,636231107201861001
74,636231107202031074
74,636231107202196354
74,636231107202361438
74,636231107202531541
74,636231107202696467
74,636231107202861546
74,636231107203031816
74,636231107203196729
74,636231107203366819
74,636231107203531924
74,636231107203697020
74,636231107203867286
74,636231107204032374
74,636231107204197287
74,636231107204367381
74,636231107204532653
74,636231107204702564
74,636231107204867656
74,636231107205032765
74,636231107205202860
74,636231107205367957
74,636231107205538030
74,636231107205703144
74,636231107205868432
74,636231107206038343
74,636231107206203418
74,636231107206368493
74,636231107206538785
74,636231107206703697
74,636231107206873775
74,636231107207038876
74,636231107207203968
74,636231107207374058
74,636231107207539167
74,636231107207704264
74,636231107207874547
74,636231107208039609
74,636231107208209520
74,636231107208374608
74,636231107208539708
74,636231107208709966
74,636231107208875075
74,636231107209039983
74,636231107209210087
74,636231107209375170
74,636231107209545273
74,636231107209710366
74,636231107209875633
74,636231107210045728
74,636231107210210820
74,636231107210375912
74,636231107210545827
74,636231107210711116
74,636231107210881010
74,636231107211046119
74,636231107211211198
74,636231107211381302
74,636231107211546569
74,636231107211711482
74,636231107211881572
74,636231107212046660
74,636231107212216772
74,636231107212382031
74,636231107212547123
74,636231107212717051
74,636231107212882130
74,636231107213047402
74,636231107213217317
74,636231107213382418
74,636231107213552500
74,636231107213717780
74,636231107213882688
74,636231107214052971
74,636231107214217884
74,636231107214383151
74,636231107214553058
74,636231107214718342
74,636231107214888275
74,636231107215053521
74,636231107215218446
74,636231107215388566
74,636231107215553629
74,636231107215718729
74,636231107215888824
74,636231107216053912
74,636231107216223994
74,636231107216389270
74,636231107216554191
74,636231107216724457
74,636231107216889540
74,636231107217054470
74,636231107217224736
74,636231107217389819
74,636231107217559734
74,636231107217724831
74,636231107217889923
74,636231107218060210
74,636231107218225118
74,636231107218390386
74,636231107218560481
74,636231107218725573
74,636231107218895479
74,636231107219060593
74,636231107219225852
74,636231107219395758
74,636231107219560863
74,636231107219730950
74,636231107219896050
74,636231107220061147
74,636231107220231220
74,636231107220396316
74,636231107220561592
74,636231107220731687
74,636231107220896600
74,636231107221066695
74,636231107221231799
74,636231107221396874
74,636231107221566974
74,636231107221732087
74,636231107221897158
74,636231107222067466
74,636231107222232366
74,636231107222402435
74,636231107222567707
74,636231107222732803
74,636231107222902731
74,636231107223068884
74,636231107223234160
74,636231107223404071
74,636231107223569167
74,636231107223734255
74,636231107223904354
74,636231107224069621
74,636231107224234713
74,636231107224404629
74,636231107224569905
74,636231107224739816
74,636231107224905104
74,636231107225070021
74,636231107225240099
74,636231107225405375
74,636231107225575282
74,636231107225740391
74,636231107225905483
74,636231107226075569
74,636231107226240832
74,636231107226405758
74,636231107226575840
74,636231107226740932
74,636231107226911027
74,636231107227076119
74,636231107227241390
74,636231107227411310
74,636231107227576586
74,636231107227741494
74,636231107227911585
74,636231107228075428
74,636231107228245848
74,636231107228412847
74,636231107228579761
74,636231107228743831
74,636231107228914635
74,636231107229080719
74,636231107229246628
74,636231107229414684
74,636231107229582243
74,636231107229748981
74,636231107229915506
74,636231107230082124
74,636231107230250145
74,636231107230415464
74,636231107230581783
74,636231107230751061
74,636231107230916799
74,636231107231084059
74,636231107231249378
74,636231107231418964
74,636231107231585941
74,636231107231752338
74,636231107231919897
74,636231107232086332
74,636231107232253305
74,636231107232420210
74,636231107232587213
74,636231107232754174
74,636231107232921156
74,636231107233088065
74,636231107233255090
74,636231107233422158
74,636231107233589781
74,636231107233753945
74,636231107233918879
74,636231107234088978
74,636231107234254070
74,636231107234424170
74,636231107234589253
74,636231107234754349
74,636231107234924453
74,636231107235088553
74,636231107235255911
74,636231107235426083
74,636231107235589995
74,636231107235760094
74,636231107235927273
74,636231107236094246
74,636231107236257440
74,636231107236427347
74,636231107236592614
74,636231107236762529
74,636231107236927805
74,636231107237092927
74,636231107237263304
74,636231107237428593
74,636231107237593514
74,636231107237763793
74,636231107237928688
74,636231107238093964
74,636231107238264059
74,636231107238428980
74,636231107238599062
74,636231107238764154
74,636231107238929246
74,636231107239099341
74,636231107239264467
74,636231107239434528
74,636231107239599616
74,636231107239764729
74,636231107239934807
74,636231107240099916
74,636231107240265004
74,636231107240435257
74,636231107240600195
74,636231107240765454
75,636231107240935386
75,636231107241100474
75,636231107241270552
75,636231107241435661
75,636231107241600732
75,636231107241770831
75,636231107241935996
75,636231107242101032
75,636231107242271294
75,636231107242436339
75,636231107242606305
75,636231107242771410
75,636231107242936485
75,636231107243106572
75,636231107243271873
75,636231107243441763
75,636231107243606868
75,636231107243772131
75,636231107243942042
75,636231107244107134
75,636231107244272247
75,636231107244442505
75,636231107244607426
75,636231107244777508
75,636231107244942595
75,636231107245107713
75,636231107245277799
75,636231107245442879
75,636231107245607975
75,636231107245778250
75,636231107245943337
75,636231107246113312
75,636231107246278405
75,636231107246443501
75,636231107246613596
75,636231107246778684
75,636231107246943776
75,636231107247113892
75,636231107247278963
75,636231107247449057
75,636231107247614333
75,636231107247779254
75,636231107247949349
75,636231107248114428
75,636231107248279525
75,636231107248449628
75,636231107248614725
75,636231107248784807
75,636231107248950100
75,636231107249115170
75,636231107249285094
75,636231107249450190
75,636231107249615458
75,636231107249785365
75,636231107249950478
75,636231107250120556
75,636231107250285656
75,636231107250450748
75,636231107250620839
75,636231107250785923
75,636231107250951194
75,636231107251121289
75,636231107251286210
75,636231107251456292
75,636231107251621568
75,636231107251786669
75,636231107251956584
75,636231107252121663
75,636231107252286777
75,636231107252456850
75,636231107252622126
75,636231107252792041
75,636231107252957313
75,636231107253122226
75,636231107253292316
75,636231107253457421
75,636231107253627507
75,636231107253792595
75,636231107253957704
75,636231107254127791
75,636231107254292896
75,636231107254457966
75,636231107254628061
75,636231107254793153
75,636231107254958249
75,636231107255128524
75,636231107255293436
75,636231107255463536
75,636231107255628632
75,636231107255793737
75,636231107255963990
75,636231107256129082
75,636231107256294067
75,636231107256464102
75,636231107256629181
75,636231107256799272
75,636231107256964360
75,636231107257129469
75,636231107257299555
75,636231107257464664
75,636231107257634746
75,636231107257799847
75,636231107257965106
75,636231107258135030
75,636231107258300147
75,636231107258465385
75,636231107258635296
75,636231107258800576
75,636231107258970487
75,636231107259135579
75,636231107259305670
75,636231107259470762
75,636231107259635880
75,636231107259800950
75,636231107259971143
75,636231107260136137
75,636231107260306232
75,636231107260471333
75,636231107260636604
75,636231107260806520
75,636231107260971612
75,636231107261136712
75,636231107261306786
75,636231107261471895
75,636231107261641973
75,636231107261807086
75,636231107261972178
75,636231107262142264
75,636231107262307365
75,636231107262472641
75,636231107262642543
75,636231107262807640
75,636231107262977722
75,636231107263142810
75,636231107263307923
75,636231107263478031
75,636231107263643089
75,636231107263808365
75,636231107263978293
75,636231107264143385
75,636231107264313467
75,636231107264478572
75,636231107264643839
75,636231107264813754
75,636231107264978838
75,636231107265143938
75,636231107265314021
75,636231107265479130
75,636231107265649207
75,636231107265814300
75,636231107265979588
75,636231107266149495
75,636231107266314583
75,636231107266479688
75,636231107266649778
75,636231107266815046
75,636231107266984957
75,636231107267150233
75,636231107267315154
75,636231107267485266
75,636231107267650524
75,636231107267820423
75,636231107267985510
75,636231107268150620
75,636231107268320697
75,636231107268485807
75,636231107268651104
75,636231107268821177
75,636231107268986086
75,636231107269156168
75,636231107269321260
75,636231107269486369
75,636231107269656549
75,636231107269821718
75,636231107269986648
75,636231107270156726
75,636231107270322006
75,636231107270491908
75,636231107270657116
75,636231107270822212
75,636231107270992204
75,636231107271157463
75,636231107271322393
75,636231107271492483
75,636231107271657746
75,636231107271827653
75,636231107271992745
75,636231107272158025
75,636231107272327936
75,636231107272493058
75,636231107272658129
75,636231107272828416
75,636231107272993303
75,636231107273163402
75,636231107273328490
75,636231107273493582
75,636231107273663677
75,636231107273828769
75,636231107273993878
74,636231107274163960
74,636231107274329052
74,636231107274499160
74,636231107274664248
74,636231107274829340
74,636231107274999473
74,636231107275164719
74,636231107275329824
74,636231107275499911
74,636231107275664823
74,636231107275834888
74,636231107275999997
74,636231107276165269
74,636231107276335248
74,636231107276500263
74,636231107276665368
74,636231107276835459
74,636231107277000777
74,636231107277170641
74,636231107277335909
74,636231107277501005
74,636231107277671040
74,636231107277836188
74,636231107278001284
74,636231107278171379
74,636231107278336471
74,636231107278506382
74,636231107278671487
74,636231107278836575
74,636231107279006657
74,636231107279171753
74,636231107279336969
74,636231107279506944
74,636231107279672045
74,636231107279842123
74,636231107280007215
74,636231107280172320
74,636231107280342419
74,636231107280507494
74,636231107280677589
74,636231107280842694
74,636231107281007777
74,636231107281177868
74,636231107281342973
74,636231107281508056
74,636231107281678348
74,636231107281843256
74,636231107282013334
74,636231107282178610
74,636231107282343702
74,636231107282513625
74,636231107282678705
74,636231107282843814
74,636231107283013904
74,636231107283178997
74,636231107283349079
74,636231107283514175
74,636231107283679442
74,636231107283849370
74,636231107284014462
74,636231107284179542
74,636231107284349820
74,636231107284514729
74,636231107284684828
74,636231107284849916
74,636231107285015033
74,636231107285185179
74,636231107285350404
74,636231107285515304
74,636231107285685399
74,636231107285850692
74,636231107286020573
74,636231107286185678
74,636231107286350770
74,636231107286520937
74,636231107286686128
74,636231107286851215
74,636231107287021144
74,636231107287186227
74,636231107287356313
74,636231107287521611
74,636231107287686515
74,636231107287856738
74,636231107288021877
74,636231107288186781
74,636231107288357068
74,636231107288522152
74,636231107288692063
74,636231107288857150
74,636231107289022255
74,636231107289192354
74,636231107289357442
74,636231107289527524
74,636231107289692638
74,636231107289857721
74,636231107290027820
74,636231107290193079
74,636231107290357987
74,636231107290528082
74,636231107290693179
74,636231107290863269
74,636231107291028545
74,636231107291193458
74,636231107291363561
74,636231107291528662
74,636231107291693737
74,636231107291863831
74,636231107292029107
74,636231107292199014
74,636231107292364290
74,636231107292529211
74,636231107292699310
74,636231107292864569
74,636231107293029486
74,636231107293199572
74,636231107293364848
74,636231107293534759
74,636231107293699864
74,636231107293865127
74,636231107294035081
74,636231107294200130
74,636231107294365410
74,636231107294535497
74,636231107294700589
74,636231107294870508
74,636231107295035780
74,636231107295200876
74,636231107295370804
74,636231107295536072
74,636231107295701151
74,636231107295871079
74,636231107296036158
74,636231107296206253
74,636231107296371563
74,636231107296536454
74,636231107296706532
74,636231107296871808
74,636231107297036900
74,636231107297206991
74,636231107297371899
74,636231107297541994
74,636231107297707090
74,636231107297872204
74,636231107298042286
74,636231107298207386
74,636231107298372675
74,636231107298542556
74,636231107298707828
74,636231107298877752
74,636231107299042835
74,636231107299207923
74,636231107299378035
74,636231107299543294
74,636231107299708386
74,636231107299878310
74,636231107300043385
74,636231107300213488
74,636231107300378785
74,636231107300543685
74,636231107300713776
74,636231107300879043
74,636231107301043955
74,636231107301214042
74,636231107301379138
74,636231107301549241
74,636231107301714505
74,636231107301879426
74,636231107302049525
74,636231107302214613
74,636231107302384699
74,636231107302549787
74,636231107302715058
74,636231107302884974
74,636231107303050245
74,636231107303215162
74,636231107303385274
74,636231107303550362
74,636231107303720439
74,636231107303885724
74,636231107304050628
74,636231107304220770
74,636231107304385815
74,636231107304551108
74,636231107304721015
74,636231107304886090
74,636231107305056184
74,636231107305221294
74,636231107305386369
74,636231107305556468
74,636231107305721573
74,636231107305886665
74,636231107306056747
74,636231107306221839
74,636231107306391951
74,636231107306557231
74,636231107306722131
74,636231107306892213
74,636231107307057300
73,636231107307222405
73,636231107307392671
73,636231107307557579
73,636231107307727679
73,636231107307892788
73,636231107308058051
73,636231107308227958
73,636231107308393054
73,636231107308558321
73,636231107308728232
73,636231107308893534
73,636231107309063419
73,636231107309228516
73,636231107309393787
73,636231107309563728
73,636231107309728974
73,636231107309893899
73,636231107310064165
73,636231107310229069
73,636231107310399168
73,636231107310564261
73,636231107310729365
73,636231107310899465
73,636231107311064552
73,636231107311229640
73,636231107311399726
73,636231107311565002
73,636231107311734909
73,636231107311900005
73,636231107312065093
73,636231107312235257
73,636231107312400293
73,636231107312565402
73,636231107312735476
73,636231107312900576
73,636231107313070658
73,636231107313235772
73,636231107313400851
73,636231107313570946
73,636231107313736209
73,636231107313901305
73,636231107314071229
73,636231107314236308
73,636231107314406403
73,636231107314571491
73,636231107314736767
73,636231107314906678
73,636231107315071774
73,636231107315236875
73,636231107315406961
73,636231107315572053
73,636231107315742144
73,636231107315907420
73,636231107316072512
73,636231107316242611
73,636231107316407699
73,636231107316572791
73,636231107316742894
73,636231107316907790
73,636231107317077893
73,636231107317243165
73,636231107317408257
73,636231107317578172
73,636231107317743448
73,636231107317908369
73,636231107318078631
73,636231107318243556
73,636231107318413647
73,636231107318578743
73,636231107318743998
73,636231107318913934
73,636231107319079005
73,636231107319249117
73,636231107319414213
73,636231107319579284
73,636231107319749379
73,636231107319914475
73,636231107320079584
73,636231107320249658
73,636231107320414934
73,636231107320584849
73,636231107320749950
73,636231107320915037
73,636231107321085124
73,636231107321250216
73,636231107321415321
73,636231107321585403
73,636231107321750499
73,636231107321920598
73,636231107322085874
73,636231107322250774
73,636231107322421052
73,636231107322585978
73,636231107322751053
73,636231107322921152
73,636231107323086248
73,636231107323256335
73,636231107323421427
73,636231107323586523
73,636231107323756643
73,636231107323921710
73,636231107324091805
73,636231107324257076
73,636231107324422168
73,636231107324592156
73,636231107324757189
73,636231107324922281
73,636231107325092363
73,636231107325257459
73,636231107325422560
73,636231107325592650
73,636231107325757759
73,636231107325927824
73,636231107326092929
73,636231107326258197
73,636231107326428108
73,636231107326593384
73,636231107326758300
73,636231107326928583
73,636231107327093474
73,636231107327263578
73,636231107327428845
73,636231107327593950
73,636231107327763848
73,636231107327928945
73,636231107328099040
73,636231107328264144
73,636231107328429232
73,636231107328599327
73,636231107328764423
73,636231107328929503
73,636231107329099781
73,636231107329264702
73,636231107329434780
73,636231107329600056
73,636231107329764986
73,636231107329935102
73,636231107330100348
73,636231107330265265
73,636231107330435526
73,636231107330600430
73,636231107330770529
73,636231107330935621
73,636231107331100726
73,636231107331270804
73,636231107331436080
73,636231107331601010
73,636231107331771126
73,636231107331936231
73,636231107332101323
73,636231107332271589
73,636231107332436514
73,636231107332606592
73,636231107332771868
73,636231107332936956
73,636231107333106875
73,636231107333271959
73,636231107333442058
73,636231107333607158
73,636231107333772238
73,636231107333942332
73,636231107334107429
73,636231107334272517
73,636231107334442624
73,636231107334607712
73,636231107334777803
73,636231107334942895
73,636231107335107983
73,636231107335278227
73,636231107335443358
73,636231107335608454
73,636231107335778365
73,636231107335943466
73,636231107336113548
73,636231107336278653
73,636231107336443911
73,636231107336613844
73,636231107336778932
73,636231107336944190
73,636231107337114302
73,636231107337279382
73,636231107337449301
73,636231107337614389
73,636231107337779477
73,636231107337949755
73,636231107338114659
73,636231107338284758
73,636231107338449863
73,636231107338614943
73,636231107338785037
73,636231107338950130
73,636231107339115234
73,636231107339285338
73,636231107339450597
73,636231107339615535
73,636231107339785595
73,636231107339950692
73,636231107340120787
73,636231107340285879
73,636231107340450967
73,636231107340621066
72,636231107340786337
72,636231107340951246
72,636231107341121345
72,636231107341286432
72,636231107341456527
72,636231107341621619
72,636231107341786711
72,636231107341956811
72,636231107342121903
72,636231107342291998
72,636231107342457090
72,636231107342622182
72,636231107342792277
72,636231107342957364
72,636231107343122461
72,636231107343292551
72,636231107343457648
72,636231107343627738
72,636231107343792830
72,636231107343957927
72,636231107344128022
72,636231107344293109
72,636231107344458210
72,636231107344628301
72,636231107344793397
72,636231107344963487
72,636231107345128575
72,636231107345293672
72,636231107345463766
72,636231107345628863
72,636231107345793951
72,636231107345964041
72,636231107346129138
72,636231107346299228
72,636231107346464320
72,636231107346629412
72,636231107346799507
72,636231107346964603
72,636231107347129696
72,636231107347299795
72,636231107347464887
72,636231107347634986
72,636231107347800082
72,636231107347965161
72,636231107348135252
72,636231107348300344
72,636231107348465436
72,636231107348635535
72,636231107348800623
72,636231107348970722
73,636231107349135810
73,636231107349300906
73,636231107349470997
73,636231107349636098
73,636231107349801185
73,636231107349971280
73,636231107350136372
73,636231107350306471
73,636231107350471555
73,636231107350636651
73,636231107350806738
73,636231107350971838
73,636231107351136930
73,636231107351307021
73,636231107351472117
73,636231107351642208
73,636231107351807304
73,636231107351972405
73,636231107352142487
73,636231107352307605
73,636231107352472697
73,636231107352642770
73,636231107352807862
73,636231107352977953
73,636231107353143049
73,636231107353308141
73,636231107353478240
73,636231107353643328
73,636231107353813419
73,636231107353978519
73,636231107354143611
73,636231107354313702
73,636231107354478790
73,636231107354643886
73,636231107354813981
73,636231107354979082
73,636231107355149164
73,636231107355314440
73,636231107355479365
73,636231107355649443
73,636231107355814552
73,636231107355979631
73,636231107356149726
73,636231107356314835
73,636231107356484921
73,636231107356650005
73,636231107356815088
73,636231107356985196
73,636231107357150464
73,636231107357315556
73,636231107357485462
73,636231107357650571
73,636231107357820654
73,636231107357985767
73,636231107358150838
73,636231107358320941
73,636231107358486037
73,636231107358651117
73,636231107358821224
73,636231107358986308
73,636231107359156398
73,636231107359321491
73,636231107359486587
73,636231107359656677
73,636231107359821774
73,636231107359986862
73,636231107360156965
73,636231107360322053
73,636231107360492237
73,636231107360657235
73,636231107360822340
73,636231107360992427
73,636231107361157519
73,636231107361322611
73,636231107361492697
73,636231107361657798
73,636231107361827893
73,636231107361992985
73,636231107362158072
73,636231107362328172
73,636231107362493268
73,636231107362658360
73,636231107362828451
73,636231107362993547
73,636231107363163642
73,636231107363328751
73,636231107363493830
73,636231107363664096
73,636231107363829004
73,636231107363999099
73,636231107364164217
73,636231107364329288
73,636231107364499459
73,636231107364664675
73,636231107364829579
73,636231107364999696
73,636231107365164766
73,636231107365334844
73,636231107365499932
73,636231107365665024
73,636231107365835136
73,636231107366000215
73,636231107366165320
73,636231107366335406
73,636231107366500503
73,636231107366670598
73,636231107366835681
73,636231107367000769
73,636231107367170872
73,636231107367335960
73,636231107367501052
73,636231107367671147
73,636231107367836239
73,636231107368006334
73,636231107368171426
73,636231107368336518
73,636231107368506613
73,636231107368671705
73,636231107368836801
73,636231107369006896
73,636231107369171988
73,636231107369342087
73,636231107369507180
73,636231107369672267
73,636231107369842362
73,636231107370007450
73,636231107370172559
73,636231107370342645
73,636231107370507729
73,636231107370677828
73,636231107370842916
73,636231107371008008
73,636231107371178111
73,636231107371343199
73,636231107371508291
73,636231107371678386
73,636231107371843474
73,636231107372013569
73,636231107372178661
73,636231107372343753
73,636231107372513856
73,636231107372678940
73,636231107372844032
73,636231107373014127
73,636231107373179219
73,636231107373349318
73,636231107373514414
73,636231107373679502
73,636231107373849593
73,636231107374014689
73,636231107374179781
73,636231107374349872
72,636231107374514964
72,636231107374685063
72,636231107374850151
72,636231107375015239
72,636231107375185342
72,636231107375350430
72,636231107375520529
72,636231107375685617
72,636231107375850717
72,636231107376020808
72,636231107376185896
72,636231107376350988
72,636231107376521087
72,636231107376686175
72,636231107376851271
72,636231107377021362
72,636231107377186454
72,636231107377356549
72,636231107377521645
72,636231107377686737
72,636231107377856832
72,636231107378021924
72,636231107378192014
72,636231107378357107
72,636231107378522203
72,636231107378692298
72,636231107378857386
72,636231107379022482
72,636231107379192572
72,636231107379357690
72,636231107379522761
72,636231107379692856
72,636231107379857956
72,636231107380028043
72,636231107380193143
72,636231107380358240
72,636231107380528352
72,636231107380693405
72,636231107380863504
72,636231107381028789
72,636231107381193688
72,636231107381363788
72,636231107381528893
72,636231107381693972
72,636231107381864062
72,636231107382029159
72,636231107382199249
72,636231107382364346
72,636231107382529438
72,636231107382699537
72,636231107382864804
72,636231107383029730
72,636231107383199812
72,636231107383364912
72,636231107383535011
72,636231107383700099
72,636231107383865213
72,636231107384035273
72,636231107384200562
72,636231107384365645
72,636231107384535757
72,636231107384700854
72,636231107384870748
72,636231107385036019
72,636231107385200936
72,636231107385371040
72,636231107385536127
72,636231107385706205
72,636231107385871314
72,636231107386036582
72,636231107386206501
72,636231107386371606
72,636231107386536685
72,636231107386706973
72,636231107386871855
72,636231107387041950
72,636231107387207042
72,636231107387372147
72,636231107387542242
72,636231107387707505
72,636231107387872430
72,636231107388042696
72,636231107388207600
72,636231107388372696
72,636231107388542804
72,636231107388707900
72,636231107388877987
72,636231107389043066
72,636231107389208346
72,636231107389378253
72,636231107389543537
72,636231107389713444
72,636231107389878716
72,636231107390043808
72,636231107390213732
72,636231107390378832
72,636231107390543903
72,636231107390714024
73,636231107390879278
73,636231107391044370
73,636231107391214277
73,636231107391379553
73,636231107391549472
73,636231107391714577
73,636231107391879644
73,636231107392049743
73,636231107392215019
73,636231107392384934
73,636231107392550206
73,636231107392715144
73,636231107392885217
73,636231107393050485
73,636231107393215581
73,636231107393385667
73,636231107393550593
73,636231107393720675
73,636231107393885762
73,636231107394050867
73,636231107394220992
73,636231107394386046
73,636231107394551326
73,636231107394721417
73,636231107394886359
73,636231107395056424
73,636231107395221696
73,636231107395386809
73,636231107395556707
73,636231107395721791
73,636231107395887084
73,636231107396056995
73,636231107396222254
73,636231107396392165
73,636231107396557436
73,636231107396722344
73,636231107396892452
73,636231107397057553
73,636231107397227630
73,636231107397392928
73,636231107397557819
73,636231107397727909
73,636231107397893002
73,636231107398058106
73,636231107398228342
73,636231107398393281
73,636231107398558373
73,636231107398728485
73,636231107398893572
73,636231107399063672
72,636231107399228939
72,636231107399394027
72,636231107399573943
72,636231107399729038
72,636231107399894297
72,636231107400064208
72,636231107400229488
72,636231107400399408
72,636231107400564684
72,636231107400729601
72,636231107400899674
72,636231107401064967
72,636231107401234870
72,636231107401400141
72,636231107401565255
72,636231107401735153
72,636231107401900249
72,636231107402065512
72,636231107402235616
72,636231107402400515
72,636231107402570623
72,636231107402735702
72,636231107402900811
72,636231107403070893
72,636231107403236007
72,636231107403401073
72,636231107403571185
72,636231107403736448
72,636231107403906355
72,636231107404071460
72,636231107404236552
72,636231107404406630
72,636231107404571743
72,636231107404736840
72,636231107404906909
72,636231107405072031
72,636231107405242104
72,636231107405407380
72,636231107405572284
72,636231107405742388
72,636231107405907467
72,636231107406072585
72,636231107406242662
72,636231107406407750
72,636231107406577845
72,636231107406742950
72,636231107406908217
72,636231107407078124
73,636231107407243400
73,636231107407408347
73,636231107407578403
73,636231107407743512
73,636231107407913594
73,636231107408078678
73,636231107408244001
73,636231107408414061
73,636231107408578978
73,636231107408744177
73,636231107408914144
73,636231107409079240
73,636231107409249335
73,636231107409414444
73,636231107409579707
73,636231107409749631
73,636231107409914894
73,636231107410079811
73,636231107410250077
73,636231107410415002
73,636231107410585080
73,636231107410750189
73,636231107410915264
73,636231107411085376
73,636231107411250639
73,636231107411420546
73,636231107411585655
73,636231107411750918
73,636231107411920838
73,636231107412086109
73,636231107412251009
73,636231107412421104
73,636231107412586375
73,636231107412756291
73,636231107412921396
73,636231107413086654
73,636231107413256604
73,636231107413421850
73,636231107413586933
73,636231107413756849
73,636231107413921971
73,636231107414092036
73,636231107414257312
73,636231107414422220
73,636231107414592349
73,636231107414757407
73,636231107414922499
73,636231107415092782
73,636231107415257870
73,636231107415427776
73,636231107415592868
73,636231107415758149
73,636231107415928068
73,636231107416093182
73,636231107416258244
73,636231107416428356
73,636231107416593448
73,636231107416763530
73,636231107416928806
73,636231107417093727
73,636231107417263817
73,636231107417428897
73,636231107417593993
73,636231107417764101
73,636231107417929364
73,636231107418099279
73,636231107418264362
73,636231107418429450
73,636231107418599545
73,636231107418764825
73,636231107418929913
73,636231107419099828
73,636231107419265109
73,636231107419435028
73,636231107419600261
73,636231107419765520
73,636231107419935427
73,636231107420100532
73,636231107420270618
73,636231107420435706
73,636231107420600815
73,636231107420770901
73,636231107420935989
73,636231107421101094
73,636231107421271176
73,636231107421436456
73,636231107421601360
73,636231107421771468
73,636231107421936731
73,636231107422106642
73,636231107422271738
73,636231107422436839
73,636231107422606934
73,636231107422772013
73,636231107422937122
73,636231107423107213
73,636231107423272288
73,636231107423442387
73,636231107423607483
73,636231107423772580
73,636231107423942662
73,636231107424107767
73,636231107424272859
73,636231107424442966
73,636231107424608037
73,636231107424778145
73,636231107424943429
73,636231107425108312
73,636231107425278595
73,636231107425443683
73,636231107425613598
73,636231107425778878
73,636231107425943778
73,636231107426113984
73,636231107426279106
73,636231107426444176
73,636231107426614293
73,636231107426779385
73,636231107426949463
73,636231107427114738
73,636231107427279831
73,636231107427449763
73,636231107427615013
73,636231107427779926
73,636231107427950209
73,636231107428115113
73,636231107428280200
73,636231107428450483
73,636231107428615387
73,636231107428785499
73,636231107428950579
73,636231107429115876
73,636231107429285975
73,636231107429451041
73,636231107429620952
73,636231107429786044
73,636231107429951137
73,636231107430121287
73,636231107430286503
73,636231107430451433
73,636231107430621506
73,636231107430786624
73,636231107430956702
73,636231107431121995
73,636231107431287087
73,636231107431457062
73,636231107431622257
73,636231107431787160
73,636231107431957448
73,636231107432122347
73,636231107432292447
73,636231107432457547
73,636231107432622810
73,636231107432792807
73,636231107432957813
73,636231107433123089
73,636231107433293017
73,636231107433458280
73,636231107433628196
73,636231107433793296
73,636231107433958555
73,636231107434128466
73,636231107434293575
73,636231107434458667
73,636231107434628767
73,636231107434793842
73,636231107434963941
73,636231107435129033
73,636231107435294146
73,636231107435464241
73,636231107435629303
73,636231107435799398
73,636231107435964516
73,636231107436129582
73,636231107436299681
73,636231107436464786
73,636231107436630066
73,636231107436800174
73,636231107436965057
73,636231107437130166
73,636231107437300427
73,636231107437465336
73,636231107437635435
73,636231107437800514
73,636231107437965790
73,636231107438135701
73,636231107438300793
73,636231107438470888
73,636231107438635997
73,636231107438801076
73,636231107438971171
73,636231107439136263
73,636231107439301535
73,636231107439471651
73,636231107439636756
73,636231107439806637
74,636231107439971947
74,636231107440137005
74,636231107440306933
74,636231107440472188
74,636231107440637280
74,636231107440807204
74,636231107440972471
74,636231107441142386
74,636231107441307487
74,636231107441472575
74,636231107441642674
74,636231107441807954
74,636231107441973046
74,636231107442143145
74,636231107442308028
74,636231107442478123
74,636231107442643399
74,636231107442808324
74,636231107442978415
74,636231107443143490
74,636231107443313589
74,636231107443478685
74,636231107443643777
74,636231107443813872
74,636231107443978960
74,636231107444144060
74,636231107444314151
74,636231107444479435
74,636231107444644335
74,636231107444814614
74,636231107444979522
74,636231107445149625
74,636231107445314722
74,636231107445479985
74,636231107445649909
74,636231107445815001
74,636231107445980076
74,636231107446150376
74,636231107446315447
74,636231107446485358
74,636231107446650642
74,636231107446815721
74,636231107446985645
74,636231107447150729
74,636231107447315825
74,636231107447485933
74,636231107447651196
74,636231107447821115
74,636231107447986207
74,636231107448151505
74,636231107448321381
74,636231107448486657
74,636231107448656568
74,636231107448821849
74,636231107448986753
74,636231107449156856
74,636231107449321952
74,636231107449487032
74,636231107449657139
74,636231107449822407
74,636231107449992313
74,636231107450157405
74,636231107450322515
74,636231107450492601
74,636231107450657684
74,636231107450822956
74,636231107450992893
74,636231107451157976
74,636231107451328063
74,636231107451493338
74,636231107451658260
74,636231107451828337
74,636231107451993617
74,636231107452158530
74,636231107452328804
74,636231107452493914
74,636231107452663803
74,636231107452829079
74,636231107452994017
74,636231107453164082
74,636231107453329358
74,636231107453494454
74,636231107453664378
74,636231107453829475
74,636231107453999557
74,636231107454164653
74,636231107454329732
74,636231107454499840
74,636231107454664941
74,636231107454830217
74,636231107455000123
74,636231107455165202
74,636231107455335297
74,636231107455500389
74,636231107455665499
74,636231107455835598
74,636231107456000664
74,636231107456165765
74,636231107456335851
74,636231107456501131
74,636231107456671038
74,636231107456836130
74,636231107457001239
74,636231107457171317
74,636231107457336597
74,636231107457501711
74,636231107457671784
74,636231107457836705
74,636231107458006787
74,636231107458172063
74,636231107458336971
74,636231107458507066
74,636231107458672342
74,636231107458837430
74,636231107459007563
74,636231107459172638
74,636231107459342528
74,636231107459507825
74,636231107459672909
74,636231107459842815
74,636231107460007916
74,636231107460172991
74,636231107460343274
74,636231107460508178
74,636231107460678281
74,636231107460843557
74,636231107461008457
74,636231107461178552
74,636231107461343644
74,636231107461508920
74,636231107461679019
74,636231107461843923
74,636231107462014022
74,636231107462179110
74,636231107462344206
74,636231107462514327
74,636231107462679397
74,636231107462849484
74,636231107463014593
74,636231107463179668
74,636231107463349767
74,636231107463514876
74,636231107463680135
74,636231107463850050
74,636231107464015138
74,636231107464185229
74,636231107464350316
74,636231107464515597
74,636231107464685508
74,636231107464850608
74,636231107465015876
74,636231107465185804
74,636231107465350879
74,636231107465520982
74,636231107465686066
74,636231107465851171
74,636231107466021265
74,636231107466186537
74,636231107466351441
74,636231107466521532
74,636231107466686696
74,636231107466856731
74,636231107467021994
74,636231107467186924
74,636231107467356997
74,636231107467522273
74,636231107467687365
74,636231107467857469
74,636231107468022561
74,636231107468192463
74,636231107468357573
74,636231107468522831
74,636231107468692815
74,636231107468857843
74,636231107469022944
74,636231107469193158
74,636231107469358135
74,636231107469528208
74,636231107469693318
74,636231107469858397
74,636231107470028487
74,636231107470193763
74,636231107470358864
74,636231107470528783
74,636231107470693880
74,636231107470863958
74,636231107471029062
74,636231107471194321
74,636231107471364232
74,636231107471529324
74,636231107471694605
74,636231107471864511
74,636231107472029603
74,636231107472199698
74,636231107472364978
74,636231107472530071
74,636231107472700165
74,636231107472865082
74,636231107473035164
74,636231107473200273
74,636231107473365365
74,636231107473535443
74,636231107473700719
74,636231107473865640
74,636231107474035927
74,636231107474200831
74,636231107474370909
74,636231107474536185
74,636231107474701106
74,636231107474871205
74,636231107475036293
74,636231107475201398
74,636231107475371476
74,636231107475536559
74,636231107475706663
74,636231107475871939
74,636231107476037026
74,636231107476206950
74,636231107476372038
74,636231107476537305
74,636231107476707212
74,636231107476872325
74,636231107477042399
74,636231107477207504
74,636231107477372587
74,636231107477542678
74,636231107477707958
74,636231107477872862
74,636231107478042961
74,636231107478208049
74,636231107478378144
74,636231107478543424
74,636231107478708345
74,636231107478878504
74,636231107479043703
74,636231107479208795
74,636231107479378719
74,636231107479543798
74,636231107479713893
74,636231107479879203
74,636231107480044073
74,636231107480214168
74,636231107480379260
74,636231107480544365
74,636231107480714631
74,636231107480879727
74,636231107481049634
74,636231107481214722
74,636231107481380006
74,636231107481549921
74,636231107481715018
74,636231107481880110
74,636231107482050418
74,636231107482215472
74,636231107482385392
74,636231107482550471
74,636231107482715580
74,636231107482885850
74,636231107483050750
74,636231107483220845
74,636231107483386121
74,636231107483551050
74,636231107483721132
74,636231107483886400
74,636231107484051496
74,636231107484221411
74,636231107484386516
74,636231107484556590
74,636231107484721682
74,636231107484886791
74,636231107485056881
74,636231107485222149
74,636231107485387048
74,636231107485557152
74,636231107485722428
74,636231107485887345
74,636231107486057610
74,636231107486222519
74,636231107486392665
74,636231107486557706
74,636231107486722815
74,636231107486893085
74,636231107487058186
74,636231107487228079
74,636231107487393360
74,636231107487558268
74,636231107487728358
74,636231107487893476
74,636231107488058632
74,636231107488228642
74,636231107488393918
74,636231107488563893
74,636231107488729105
74,636231107488894017
74,636231107489064112
74,636231107489229384
74,636231107489394484
74,636231107489564382
74,636231107489729474
74,636231107489899574
74,636231107490064661
74,636231107490229937
74,636231107490399857
74,636231107490564940
74,636231107490730058
74,636231107490900311
74,636231107491065219
74,636231107491235314
74,636231107491400432
74,636231107491565498
74,636231107491735602
74,636231107491900869
74,636231107492065794
74,636231107492236077
74,636231107492401148
74,636231107492571059
74,636231107492736151
74,636231107492901260
74,636231107493071338
74,636231107493236610
74,636231107493401522
74,636231107493571801
74,636231107493736893
74,636231107493906813
74,636231107494072080
74,636231107494237172
74,636231107494407083
74,636231107494572175
74,636231107494737451
74,636231107494907379
74,636231107495072642
74,636231107495242553
74,636231107495407645
74,636231107495572742
74,636231107495742926
74,636231107495907937
74,636231107496078015
74,636231107496243116
74,636231107496408199
74,636231107496578397
74,636231107496743382
74,636231107496908478
74,636231107497078573
74,636231107497243853
74,636231107497408757
74,636231107497579040
74,636231107497744128
74,636231107497914039
74,636231107498079152
74,636231107498244232
74,636231107498414647
74,636231107498579756
74,636231107498744831
74,636231107498914948
74,636231107499080202
74,636231107499250117
74,636231107499415218
74,636231107499580297
74,636231107499750392
74,636231107499915506
74,636231107500085579
74,636231107500250859
74,636231107500415947
74,636231107500585862
74,636231107500750971
74,636231107500916235
74,636231107501086137
74,636231107501251233
74,636231107501416509
74,636231107501586604
74,636231107501751692
74,636231107501921620
74,636231107502086879
74,636231107502251787
74,636231107502421882
74,636231107502586978
74,636231107502752070
74,636231107502922161
74,636231107503087253
74,636231107503257348
74,636231107503422449
74,636231107503587532
74,636231107503757631
74,636231107503922740
74,636231107504092814
74,636231107504257919
74,636231107504422998
74,636231107504593097
74,636231107504758189
74,636231107504923290
74,636231107505093581
74,636231107505258682
74,636231107505428559
74,636231107505593848
74,636231107505758760
74,636231107505928846
74,636231107506093951
74,636231107506264025
74,636231107506429305
74,636231107506594222
74,636231107506764308
74,636231107506929417
74,636231107507094706
74,636231107507264591
74,636231107507429705
74,636231107507594946
74,636231107507764866
74,636231107507930142
74,636231107508100049
74,636231107508265145
74,636231107508430233
74,636231107508600332
74,636231107508765424
74,636231107508930516
74,636231107509100615
74,636231107509265729
74,636231107509435794
74,636231107509600890
74,636231107509766008
74,636231107509936081
74,636231107510101344
74,636231107510266257
74,636231107510436540
74,636231107510601628
74,636231107510771539
74,636231107510936635
74,636231107511101723
74,636231107511272027
74,636231107511437098
74,636231107511602002
74,636231107511772276
74,636231107511937390
74,636231107512107292
74,636231107512272376
74,636231107512437651
75,636231107512607567
75,636231107512772655
75,636231107512942754
75,636231107513108034
75,636231107513272934
75,636231107513443028
75,636231107513608120
75,636231107513773392
75,636231107513943307
75,636231107514108395
75,636231107514278490
75,636231107514443770
75,636231107514608691
75,636231107514778786
75,636231107514944058
75,636231107515108966
75,636231107515279065
75,636231107515444354
75,636231107515614239
75,636231107515779344
75,636231107515944428
75,636231107516114595
75,636231107516279610
75,636231107516444724
75,636231107516614810
75,636231107516780069
75,636231107516949984
75,636231107517115081
75,636231107517280164
75,636231107517450263
75,636231107517615355
75,636231107517780627
75,636231107517950559
75,636231107518115630
75,636231107518285729
75,636231107518450821
75,636231107518615926
75,636231107518786017
75,636231107518951113
75,636231107519116197
75,636231107519286296
75,636231107519451396
75,636231107519621487
75,636231107519786771
75,636231107519951684
75,636231107520121762
75,636231107520286862
75,636231107520452130
75,636231107520622045
75,636231107520787146
75,636231107520957219
75,636231107521122324
75,636231107521287420
75,636231107521457494
75,636231107521622590
75,636231107521787896
75,636231107521957790
75,636231107522123057
75,636231107522292964
75,636231107522458240
75,636231107522623328
75,636231107522793251
75,636231107522958348
75,636231107523123619
75,636231107523293518
75,636231107523458798
75,636231107523628705
75,636231107523793985
75,636231107523959077
75,636231107524129086
75,636231107524294080
75,636231107524459176
75,636231107524629267
75,636231107524794543
75,636231107524964454
75,636231107525129563
75,636231107525294822
75,636231107525464874
75,636231107525629842
75,636231107525794938
75,636231107525965213
75,636231107526130117
75,636231107526300310
75,636231107526465287
75,636231107526630379
75,636231107526800662
75,636231107526965749
75,636231107527135669
75,636231107527300936
75,636231107527465849
75,636231107527635944
75,636231107527801031
75,636231107527966162
76,636231107528136436
76,636231107528301499
76,636231107528471410
76,636231107528636519
76,636231107528801589
76,636231107528971791
76,636231107529136793
76,636231107529301868
76,636231107529471985
76,636231107529637239
76,636231107529807172
76,636231107529972277
76,636231107530137339
76,636231107530307434
76,636231107530472705
76,636231107530637618
76,636231107530807896
76,636231107530972817
76,636231107531142899
76,636231107531308004
76,636231107531473263
76,636231107531643178
76,636231107531808292
76,636231107531973367
76,636231107532143453
76,636231107532308562
76,636231107532478657
76,636231107532643736
76,636231107532808829
76,636231107532978970
76,636231107533144015
76,636231107533309291
76,636231107533479211
76,636231107533644307
76,636231107533814406
76,636231107533979477
76,636231107534144582
76,636231107534314771
76,636231107534479760
76,636231107534645071
76,636231107534815161
76,636231107534980039
76,636231107535150134
76,636231107535315243
76,636231107535480314
76,636231107535650413
76,636231107535815698
76,636231107535980777
76,636231107536150701
76,636231107536315797
76,636231107536485883
76,636231107536650993
76,636231107536816251
76,636231107536986346
76,636231107537151267
76,636231107537321345
76,636231107537486433
76,636231107537651542
76,636231107537821628
76,636231107537986904
76,636231107538151992
76,636231107538321920
76,636231107538486995
76,636231107538652104
76,636231107538822396
76,636231107538987492
76,636231107539157369
76,636231107539322461
76,636231107539487553
76,636231107539657661
76,636231107539822920
76,636231107539992835
76,636231107540158107
76,636231107540323032
76,636231107540493165
76,636231107540658210
76,636231107540823315
76,636231107540993577
76,636231107541158665
76,636231107541328588
76,636231107541493856
76,636231107541658785
76,636231107541828915
76,636231107541993955
76,636231107542159231
76,636231107542329330
76,636231107542494410
76,636231107542664325
76,636231107542829417
76,636231107542994522
76,636231107543164604
76,636231107543329730
76,636231107543494788
76,636231107543665071
76,636231107543830155
76,636231107544000070
76,636231107544165158
76,636231107544330434
76,636231107544500460
76,636231107544665437
76,636231107544830550
76,636231107545000624
76,636231107545165737
76,636231107545335815
76,636231107545500903
76,636231107545666187
76,636231107545836094
76,636231107546001370
76,636231107546166278
76,636231107546336557
76,636231107546501482
76,636231107546671560
76,636231107546836831
76,636231107547001744
76,636231107547171852
76,636231107547337132
76,636231107547507038
76,636231107547672323
76,636231107547837227
76,636231107548007322
76,636231107548172410
76,636231107548337493
76,636231107548507763
76,636231107548672855
76,636231107548842771
76,636231107549007880
76,636231107549173147
76,636231107549343062
76,636231107549508142
76,636231107549673251
76,636231107549843508
76,636231107550008438
76,636231107550178515
76,636231107550343791
76,636231107550508883
76,636231107550678794
76,636231107550844070
76,636231107551008987
76,636231107551179121
76,636231107551344345
76,636231107551514260
76,636231107551679558
76,636231107551844445
76,636231107552014638
77,636231107552179815
77,636231107552344907
77,636231107552514998
77,636231107552680094
77,636231107552850005
77,636231107553015110
77,636231107553180194
77,636231107553350289
77,636231107553515556
77,636231107553680473
77,636231107553850576
77,636231107554015844
77,636231107554185763
77,636231107554350838
77,636231107554515952
77,636231107554686038
77,636231107554851121
77,636231107555016397
77,636231107555186325
77,636231107555351400
77,636231107555521499
77,636231107555686587
77,636231107555851696
77,636231107556021783
77,636231107556187050
77,636231107556352142
77,636231107556522237
77,636231107556687158
77,636231107556857240
77,636231107557022345
77,636231107557187424
77,636231107557357519
77,636231107557522607
77,636231107557687725
77,636231107557857811
77,636231107558022903
77,636231107558192985
77,636231107558358077
77,636231107558523182
77,636231107558693290
77,636231107558858373
77,636231107559028451
77,636231107559193727
77,636231107559358631
77,636231107559528734
77,636231107559693826
77,636231107559859098
77,636231107560029112
77,636231107560194101
77,636231107560359386
77,636231107560529284
77,636231107560694560
77,636231107560864475
77,636231107561029751
77,636231107561194843
77,636231107561364763
77,636231107561529859
77,636231107561699937
77,636231107561865050
77,636231107562030125
77,636231107562200271
77,636231107562365521
77,636231107562530618
77,636231107562700683
77,636231107562865775
77,636231107563035686
77,636231107563200957
77,636231107563366058
77,636231107563535978
77,636231107563701245
77,636231107563866153
77,636231107564036346
77,636231107564201520
77,636231107564371444
77,636231107564536702
77,636231107564701611
77,636231107564871723
77,636231107565036815
77,636231107565201907
77,636231107565372173
77,636231107565537282
77,636231107565707176
77,636231107565872272
77,636231107566037539
77,636231107566207468
77,636231107566372547
77,636231107566537643
77,636231107566707918
77,636231107566872826
77,636231107567042933
77,636231107567208197
77,636231107567373289
77,636231107567543200
77,636231107567708484
77,636231107567873568
77,636231107568043483
77,636231107568208571
77,636231107568378666
77,636231107568543779
77,636231107568708845
77,636231107568878940
77,636231107569044058
77,636231107569214131
77,636231107569379403
77,636231107569544333
77,636231107569714406
77,636231107569879691
77,636231107570044599
77,636231107570214779
77,636231107570379970
77,636231107570544886
77,636231107570715148
77,636231107570880073
77,636231107571050155
77,636231107571215260
77,636231107571380352
77,636231107571550430
77,636231107571715544
77,636231107571880811
77,636231107572050713
77,636231107572215831
77,636231107572385900
77,636231107572550988
77,636231107572716268
77,636231107572886368
77,636231107573051284
77,636231107573216359
77,636231107573386463
77,636231107573551563
77,636231107573721692
77,636231107573886737
77,636231107574052013
77,636231107574221941
77,636231107574387012
77,636231107574552121
77,636231107574722199
77,636231107574887505
77,636231107575057399
77,636231107575222478
77,636231107575387763
77,636231107575557682
77,636231107575722941
77,636231107575892852
77,636231107576057948
76,636231107576223053
76,636231107576393135
76,636231107576558236
76,636231107576723503
76,636231107576893414
76,636231107577058506
76,636231107577228601
76,636231107577393706
76,636231107577558781
76,636231107577728880
76,636231107577893985
76,636231107578059081
76,636231107578229347
76,636231107578394435
76,636231107578564346
76,636231107578729438
76,636231107578894714
76,636231107579064634
76,636231107579229717
76,636231107579394993
76,636231107579564921
76,636231107579729996
76,636231107579900091
76,636231107580065375
76,636231107580230459
76,636231107580400468
76,636231107580565479
76,636231107580730567
76,636231107580900837
76,636231107581065929
76,636231107581235849
76,636231107581401116
76,636231107581566208
76,636231107581736111
76,636231107581901395
76,636231107582066312
76,636231107582236582
76,636231107582401670
76,636231107582571581
76,636231107582736677
76,636231107582901765
76,636231107583071873
76,636231107583236952
76,636231107583402082
76,636231107583572152
76,636231107583737235
76,636231107583907321
76,636231107584072418
76,636231107584237506
76,636231107584407626
76,636231107584572693
76,636231107584737793
76,636231107584907897
76,636231107585072984
76,636231107585243075
76,636231107585408176
76,636231107585573272
76,636231107585743538
76,636231107585908455
76,636231107586078537
76,636231107586243650
76,636231107586408734
76,636231107586578828
76,636231107586743912
76,636231107586909025
76,636231107587079137
76,636231107587244208
76,636231107587414282
76,636231107587579395
76,636231107587744466
76,636231107587914573
76,636231107588079841
76,636231107588244745
76,636231107588414840
76,636231107588580116
76,636231107588750022
76,636231107588915114
76,636231107589080206
76,636231107589250310
76,636231107589415415
76,636231107589580502
76,636231107589750597
76,636231107589915860
76,636231107590085780
76,636231107590250859
76,636231107590416139
76,636231107590586050
76,636231107590751326
76,636231107590916235
76,636231107591086325
76,636231107591251422
76,636231107591421525
76,636231107591586814
77,636231107591751910
77,636231107591921804
77,636231107592086883
77,636231107592252159
77,636231107592422258
77,636231107592587355
77,636231107592757261
77,636231107592922537
77,636231107593087638
77,636231107593257566
77,636231107593422637
77,636231107593592727
77,636231107593758025
77,636231107593922911
77,636231107594093023
77,636231107594258098
77,636231107594423203
77,636231107594593298
77,636231107594758373
77,636231107594928472
77,636231107595093560
77,636231107595258669
77,636231107595428764
77,636231107595593848
77,636231107595759145
77,636231107595929214
77,636231107596094127
77,636231107596264217
77,636231107596429309
77,636231107596594589
77,636231107596764496
77,636231107596929588
77,636231107597094864
77,636231107597264959
77,636231107597429867
77,636231107597599971
77,636231107597765242
77,636231107597930364
77,636231107598100339
77,636231107598265329
77,636231107598430686
77,636231107598600593
77,636231107598765689
77,636231107598935784
77,636231107599100889
77,636231107599266186
77,636231107599436076
77,636231107599601155
77,636231107599766268
77,636231107599936522
77,636231107600101639
77,636231107600271529
77,636231107600436638
77,636231107600601897
77,636231107600771812
77,636231107600937084
77,636231107601102180
77,636231107601272275
77,636231107601437196
77,636231107601607278
77,636231107601772387
77,636231107601937479
77,636231107602107549
77,636231107602272863
77,636231107602437942
77,636231107602608016
77,636231107602773108
77,636231107602943019
77,636231107603108290
77,636231107603273387
77,636231107603443306
77,636231107603608582
77,636231107603773486
77,636231107603943598
77,636231107604108682
77,636231107604278785
77,636231107604443873
77,636231107604609132
77,636231107604779064
77,636231107604944148
77,636231107605109231
77,636231107605279317
77,636231107605444414
77,636231107605614509
77,636231107605779802
77,636231107605944697
77,636231107606114788
77,636231107606280085
77,636231107606444972
77,636231107606615079
77,636231107606780347
77,636231107606950254
77,636231107607115346
77,636231107607280622
76,636231107607450533
76,636231107607615813
76,636231107607780738
76,636231107607950829
76,636231107608115912
76,636231107608285998
76,636231107608451108
76,636231107608616178
76,636231107608786513
76,636231107608951387
76,636231107609116667
76,636231107609286556
76,636231107609451644
76,636231107609621893
76,636231107609786998
76,636231107609952094
76,636231107610122193
76,636231107610287294
76,636231107610452386
76,636231107610622468
76,636231107610787744
76,636231107610957664
76,636231107611122927
76,636231107611287835
76,636231107611457934
76,636231107611623030
76,636231107611793121
76,636231107611958397
76,636231107612123493
76,636231107612293413
76,636231107612458505
76,636231107612623794
76,636231107612793696
76,636231107612958767
76,636231107613128870
76,636231107613293971
76,636231107613459063
76,636231107613629158
76,636231107613794254
76,636231107613959325
76,636231107614129616
76,636231107614294520
76,636231107614464611
76,636231107614629716
76,636231107614795000
77,636231107614964984
77,636231107615129995
77,636231107615295074
77,636231107615465169
77,636231107615630261
77,636231107615800356
77,636231107615965632
77,636231107616130553
77,636231107616300648
77,636231107616465744
77,636231107616631024
77,636231107616800927
77,636231107616966010
77,636231107617136105
77,636231107617301193
77,636231107617466302
77,636231107617636388
77,636231107617801468
77,636231107617966564
77,636231107618136655
77,636231107618301768
77,636231107618471846
77,636231107618636934
77,636231107618802030
77,636231107618972133
77,636231107619137238
77,636231107619302309
77,636231107619472588
77,636231107619637607
77,636231107619807591
77,636231107619972696
77,636231107620137775
77,636231107620307878
77,636231107620473052
77,636231107620638054
77,636231107620808354
77,636231107620973425
77,636231107621143336
77,636231107621308440
77,636231107621473520
77,636231107621643657
77,636231107621808719
77,636231107621973812
77,636231107622143906
77,636231107622309170
77,636231107622479081
77,636231107622644173
77,636231107622809282
77,636231107622979364
77,636231107623144447
77,636231107623309561
77,636231107623479660
77,636231107623644748
77,636231107623815009
77,636231107623980110
77,636231107624145074
77,636231107624315246
77,636231107624480197
77,636231107624645301
77,636231107624815392
77,636231107624980664
77,636231107625150588
77,636231107625315662
77,636231107625485757
77,636231107625650862
77,636231107625815954
77,636231107625986036
77,636231107626151312
77,636231107626316233
77,636231107626486332
77,636231107626651587
77,636231107626816679
77,636231107626986599
77,636231107627151879
77,636231107627321781
77,636231107627486878
77,636231107627652145
77,636231107627822069
77,636231107627987336
77,636231107628152437
77,636231107628322335
77,636231107628487448
77,636231107628657526
77,636231107628822618
77,636231107628987719
77,636231107629157835
77,636231107629323107
77,636231107629488002
77,636231107629658084
77,636231107629823364
77,636231107629993271
77,636231107630158547
77,636231107630323639
77,636231107630493747
77,636231107630658826
77,636231107630823756
77,636231107630993833
77,636231107631158925
77,636231107631329016
77,636231107631494130
77,636231107631659405
77,636231107631829295
77,636231107631994404
77,636231107632164482
77,636231107632329587
77,636231107632494846
77,636231107632664761
77,636231107632830037
77,636231107632994941
77,636231107633165044
77,636231107633330141
77,636231107633495404
77,636231107633665524
77,636231107633830420
77,636231107634000506
77,636231107634165611
77,636231107634330699
77,636231107634500785
77,636231107634665890
77,636231107634831153
77,636231107635001064
77,636231107635166336
77,636231107635336255
77,636231107635501527
77,636231107635666619
77,636231107635836538
77,636231107636001810
77,636231107636166894
77,636231107636336835
77,636231107636502081
77,636231107636672009
77,636231107636837285
77,636231107637002364
77,636231107637172271
77,636231107637337388
77,636231107637502480
77,636231107637672738
77,636231107637837659
77,636231107638007758
77,636231107638172829
77,636231107638337933
77,636231107638508208
77,636231107638673112
77,636231107638843211
77,636231107639008299
77,636231107639173391
77,636231107639343537
77,636231107639508599
77,636231107639673674
77,636231107639843765
77,636231107640008874
77,636231107640178969
77,636231107640344057
77,636231107640509320
77,636231107640679243
77,636231107640844318
77,636231107641009564
77,636231107641179693
77,636231107641344619
77,636231107641514697
77,636231107641679972
77,636231107641845082
77,636231107642015040
77,636231107642180063
77,636231107642345155
77,636231107642515434
77,636231107642680530
77,636231107642850446
77,636231107643015529
77,636231107643180814
77,636231107643350836
77,636231107643515817
77,636231107643680917
77,636231107643851012
77,636231107644016100
77,636231107644186186
77,636231107644351505
77,636231107644516366
77,636231107644686474
77,636231107644851579
77,636231107645016829
77,636231107645186928
77,636231107645352020
77,636231107645521940
77,636231107645687203
77,636231107645852133
77,636231107646022227
77,636231107646187324
77,636231107646357397
77,636231107646522511
77,636231107646687594
77,636231107646857676
77,636231107647022948
77,636231107647187869
77,636231107647358139
77,636231107647523231
77,636231107647693142
77,636231107647858247
77,636231107648023335
77,636231107648193434
77,636231107648358509
77,636231107648523618
77,636231107648693700
77,636231107648858788
77,636231107649028887
77,636231107649193996
77,636231107649359084
77,636231107649529166
77,636231107649694280
77,636231107649859530
77,636231107650029454
77,636231107650194537
77,636231107650364628
77,636231107650529728
77,636231107650694833
77,636231107650864911
77,636231107651030183
77,636231107651195288
77,636231107651365383
77,636231107651530466
77,636231107651700377
77,636231107651865486
77,636231107652030565
77,636231107652200665
77,636231107652365778
77,636231107652530836
77,636231107652701127
77,636231107652866544
77,636231107653031440
77,636231107653201552
77,636231107653366815
77,636231107653536722
77,636231107653701998
77,636231107653866914
77,636231107654037189
77,636231107654202110
77,636231107654367185
77,636231107654537288
77,636231107654702372
77,636231107654872484
77,636231107655037772
77,636231107655202877
77,636231107655372763
77,636231107655537855
77,636231107655707937
77,636231107655873208
77,636231107656038129
77,636231107656208216
77,636231107656373496
77,636231107656538417
77,636231107656708512
77,636231107656873604
77,636231107657043682
77,636231107657208770
77,636231107657374058
77,636231107657543974
77,636231107657709049
77,636231107657874329
77,636231107658044235
77,636231107658209520
77,636231107658379427
77,636231107658544698
77,636231107658709607
77,636231107658879714
77,636231107659044793
77,636231107659210074
77,636231107659380002
77,636231107659545094
77,636231107659715172
77,636231107659880448
77,636231107660045535
77,636231107660215459
77,636231107660380722
77,636231107660545819
77,636231107660715841
77,636231107660880830
77,636231107661050921
77,636231107661216192
77,636231107661381122
78,636231107661551302
78,636231107661716467
78,636231107661881576
78,636231107662051658
78,636231107662216746
78,636231107662386661
78,636231107662551933
78,636231107662717051
78,636231107662886945
78,636231107663052050
78,636231107663222157
78,636231107663387232
78,636231107663552316
78,636231107663722415
78,636231107663887498
78,636231107664052608
78,636231107664222698
78,636231107664387777
78,636231107664557872
78,636231107664722960
78,636231107664888236
78,636231107665058151
78,636231107665223248
78,636231107665393343
78,636231107665558430
78,636231107665723527
78,636231107665893617
78,636231107666058889
78,636231107666223990
78,636231107666393909
78,636231107666559001
78,636231107666724260
78,636231107666894355
78,636231107667059302
78,636231107667224359
78,636231107667394471
78,636231107667559555
78,636231107667729641
78,636231107667894733
78,636231107668060031
78,636231107668229933
78,636231107668395209
78,636231107668565107
78,636231107668730212
78,636231107668895304
78,636231107669065399
78,636231107669230478
78,636231107669395570
78,636231107669565665
78,636231107669730783
78,636231107669900865
78,636231107670065957
78,636231107670231053
78,636231107670401140
78,636231107670566219
78,636231107670731315
78,636231107670901590
78,636231107671066515
78,636231107671231607
78,636231107671401869
78,636231107671566785
78,636231107671736889
78,636231107671902178
78,636231107672067073
78,636231107672237335
78,636231107672402431
78,636231107672572346
78,636231107672737443
78,636231107672902543
78,636231107673072621
78,636231107673237713
78,636231107673407808
78,636231107673572900
78,636231107673737988
78,636231107673908104
78,636231107674073209
78,636231107674238455
78,636231107674408550
78,636231107674573646
78,636231107674738567
78,636231107674908658
78,636231107675073921
78,636231107675243845
78,636231107675409112
78,636231107675574029
78,636231107675744136
78,636231107675909211
78,636231107676074496
78,636231107676244403
78,636231107676409495
78,636231107676579598
78,636231107676744682
78,636231107676909757
78,636231107677079856
78,636231107677244961
78,636231107677415043
78,636231107677580130
78,636231107677745235
78,636231107677915407
78,636231107678080409
78,636231107678245737
78,636231107678415596
78,636231107678580688
78,636231107678750788
78,636231107678916059
78,636231107679080967
78,636231107679251131
78,636231107679416338
78,636231107679581251
78,636231107679751354
78,636231107679916626
78,636231107680086533
78,636231107680251637
78,636231107680416734
78,636231107680586824
78,636231107680751899
78,636231107680917180
78,636231107681087103
78,636231107681252366
78,636231107681422277
78,636231107681587387
78,636231107681757464
78,636231107681922569
78,636231107682087661
78,636231107682252946
78,636231107682423054
78,636231107682588141
78,636231107682758035
78,636231107682923114
78,636231107683088390
78,636231107683258301
78,636231107683423573
78,636231107683588498
78,636231107683758593
78,636231107683923677
78,636231107684093772
78,636231107684258877
78,636231107684424157
78,636231107684594042
78,636231107684759160
78,636231107684924226
78,636231107685094342
78,636231107685259435
78,636231107685429512
78,636231107685594784
78,636231107685759880
78,636231107685929821
78,636231107686094892
78,636231107686259980
78,636231107686430083
78,636231107686595175
78,636231107686765257
78,636231107686930529
78,636231107687095625
78,636231107687265532
78,636231107687430650
78,636231107687595900
78,636231107687765995
78,636231107687930903
78,636231107688100998
78,636231107688266094
78,636231107688431195
78,636231107688601277
78,636231107688766587
78,636231107688931487
78,636231107689101744
78,636231107689266648
78,636231107689436747
78,636231107689602023
78,636231107689767111
78,636231107689937022
78,636231107690102302
78,636231107690272213
78,636231107690437489
78,636231107690602410
78,636231107690772501
78,636231107690937802
78,636231107691102672
78,636231107691272951
78,636231107691437863
78,636231107691607958
78,636231107691773230
78,636231107691938326
79,636231107692108246
79,636231107692273325
79,636231107692438421
79,636231107692608516
79,636231107692773792
79,636231107692943716
79,636231107693109004
79,636231107693274071
79,636231107693444161
79,636231107693609087
79,636231107693774346
79,636231107693944449
79,636231107694109537
79,636231107694279448
79,636231107694444685
79,636231107694609636
79,636231107694779727
79,636231107694944819
79,636231107695114914
79,636231107695280019
79,636231107695445282
79,636231107695615193
79,636231107695780281
79,636231107695945373
79,636231107696115472
79,636231107696280743
79,636231107696445835
79,636231107696615759
79,636231107696781027
79,636231107696950938
79,636231107697116043
79,636231107697281306
79,636231107697451225
79,636231107697616322
79,636231107697781414
79,636231107697951491
79,636231107698116776
79,636231107698286683
79,636231107698451770
79,636231107698616867
79,636231107698786966
79,636231107698952238
79,636231107699117338
79,636231107699287258
79,636231107699452346
79,636231107699622428
79,636231107699787520
79,636231107699952791
79,636231107700122737
79,636231107700287811
79,636231107700452895
79,636231107700622986
79,636231107700788086
79,636231107700958173
79,636231107701123470
79,636231107701288357
79,636231107701458464
79,636231107701623539
79,636231107701793638
79,636231107701958743
79,636231107702123844
79,636231107702293939
79,636231107702459005
79,636231107702624114
79,636231107702794376
79,636231107702959293
79,636231107703124385
79,636231107703294488
79,636231107703459563
79,636231107703629679
79,636231107703794938
79,636231107703960035
79,636231107704129954
79,636231107704295217
79,636231107704465128
79,636231107704630409
79,636231107704795496
79,636231107704965416
79,636231107705130499
79,636231107705295797
79,636231107705465691
79,636231107705630962
79,636231107705800890
79,636231107705966158
79,636231107706131070
79,636231107706301204
79,636231107706466424
79,636231107706631345
79,636231107706801615
79,636231107706966536
79,636231107707136622
79,636231107707301706
79,636231107707466815
79,636231107707636897
79,636231107707801989
79,636231107707967090
79,636231107708137360
79,636231107708302268
79,636231107708472419
79,636231107708637455
79,636231107708802547
79,636231107708972642
79,636231107709137914
79,636231107709307833
79,636231107709472917
79,636231107709638218
79,636231107709808108
79,636231107709973422
79,636231107710138472
79,636231107710308571
79,636231107710473663
79,636231107710638755
79,636231107710808850
79,636231107710973758
79,636231107711143857
79,636231107711309133
79,636231107711474037
79,636231107711644337
79,636231107711809241
79,636231107711979315
79,636231107712144420
79,636231107712309512
79,636231107712479594
79,636231107712644870
79,636231107712809782
79,636231107712980835
79,636231107713145940
79,636231107713311019
79,636231107713481118
79,636231107713646398
79,636231107713811315
79,636231107713981594
79,636231107714146481
79,636231107714316580
79,636231107714481685
79,636231107714646764
79,636231107714816897
79,636231107714981964
79,636231107715152046
79,636231107715317150
78,636231107715482234
78,636231107715652325
78,636231107715817425
78,636231107715982688
78,636231107716152612
78,636231107716317708
78,636231107716482788
78,636231107716652900
78,636231107716818154
78,636231107716988070
78,636231107717153179
78,636231107717318249
78,636231107717488494
78,636231107717653458
78,636231107717818717
78,636231107717988640
78,636231107718153720
78,636231107718323814
78,636231107718488924
78,636231107718653994
78,636231107718824111
78,636231107718989374
78,636231107719154282
78,636231107719324385
78,636231107719489644
78,636231107719659564
78,636231107719824673
78,636231107719989769
78,636231107720159847
78,636231107720324943
78,636231107720490206
78,636231107720660130
78,636231107720825231
78,636231107720995321
78,636231107721160550
78,636231107721325488
78,636231107721495596
78,636231107721660688
78,636231107721830770
78,636231107721995862
78,636231107722160950
78,636231107722331054
78,636231107722496342
78,636231107722661233
78,636231107722831422
78,636231107722996420
78,636231107723166515
78,636231107723331620
78,636231107723496708
78,636231107723666803
78,636231107723831895
78,636231107723996987
78,636231107724167086
78,636231107724332345
78,636231107724502260
78,636231107724667536
78,636231107724832444
78,636231107725002548
78,636231107725167644
78,636231107725332911
78,636231107725502835
78,636231107725667923
78,636231107725838005
78,636231107726003101
78,636231107726168373
78,636231107726338288
78,636231107726503376
78,636231107726668468
78,636231107726838768
78,636231107727003668
78,636231107727173754
78,636231107727338855
78,636231107727504118
78,636231107727674187
78,636231107727839305
78,636231107728004213
