101,636231105045167080
101,636231105045277153
101,636231105045382236
101,636231105045487293
101,636231105045592379
101,636231105045702444
101,636231105045807514
101,636231105045912610
101,636231105046022854
101,636231105046127834
101,636231105046233002
101,636231105046338076
101,636231105046442966
101,636231105046548220
101,636231105046653127
101,636231105046758189
101,636231105046863451
101,636231105046968529
101,636231105047073411
101,636231105047178489
101,636231105047283747
101,636231105047388642
101,636231105047493729
101,636231105047598965
101,636231105047709069
101,636231105047814151
101,636231105047919183
101,636231105048024295
101,636231105048134339
101,636231105048239417
101,636231105048349490
101,636231105048454402
101,636231105048559651
101,636231105048664537
101,636231105048769607
101,636231105048874861
101,636231105048979755
101,636231105049085013
101,636231105049189916
101,636231105049300165
101,636231105049405089
101,636231105049510129
101,636231105049615207
101,636231105049720465
101,636231105049825351
101,636231105049935446
101,636231105050040713
101,636231105050145577
101,636231105050250865
101,636231105050355914
101,636231105050460799
101,636231105050565891
101,636231105050670960
101,636231105050776022
101,636231105050881096
101,636231105050986183
101,636231105051091240
101,636231105051196498
101,636231105051306396
101,636231105051411654
101,636231105051516544
101,636231105051621622
101,636231105051726701
101,636231105051831762
101,636231105051936853
101,636231105052041919
101,636231105052147168
100,636231105052252080
100,636231105052357321
100,636231105052462395
100,636231105052567464
100,636231105052672376
100,636231105052777446
100,636231105052882507
100,636231105052987598
100,636231105053092843
100,636231105053197918
100,636231105053302816
100,636231105053407878
100,636231105053512960
100,636231105053618043
100,636231105053723113
100,636231105053828178
100,636231105053933440
100,636231105054038502
100,636231105054143576
100,636231105054253470
100,636231105054363735
100,636231105054468809
100,636231105054573704
100,636231105054678774
100,636231105054784027
100,636231105054888926
100,636231105054998995
100,636231105055104257
100,636231105055209327
100,636231105055314235
100,636231105055424496
100,636231105055529557
100,636231105055634460
100,636231105055739701
100,636231105055844600
100,636231105055949849
100,636231105056054761
100,636231105056159818
100,636231105056260072
100,636231105056365168
100,636231105056470037
100,636231105056570291
100,636231105056680185
100,636231105056790267
100,636231105056900537
100,636231105057005410
100,636231105057110488
100,636231105057215742
100,636231105057320825
100,636231105057425890
100,636231105057530977
100,636231105057635863
100,636231105057741117
100,636231105057846024
100,636231105057951081
100,636231105058061180
100,636231105058166263
100,636231105058271491
100,636231105058376385
100,636231105058481455
100,636231105058586542
100,636231105058691616
100,636231105058791853
100,636231105058896932
100,636231105059006821
100,636231105059111981
100,636231105059216987
100,636231105059322227
100,636231105059427301
100,636231105059532213
100,636231105059637283
100,636231105059742528
100,636231105059847423
100,636231105059947668
100,636231105060052567
100,636231105060157646
97,636231105060257887
97,636231105060362961
97,636231105060473039
97,636231105060582937
97,636231105060688037
97,636231105060793085
97,636231105060898176
97,636231105061003255
97,636231105061108495
97,636231105061213565
97,636231105061318639
97,636231105061428546
97,636231105061533795
97,636231105061638865
97,636231105061748943
97,636231105061854017
97,636231105061958903
97,636231105062064169
97,636231105062169060
97,636231105062274134
97,636231105062379203
97,636231105062484483
97,636231105062594560
97,636231105062699438
97,636231105062804508
97,636231105062909761
97,636231105063014656
97,636231105063124909
97,636231105063229987
97,636231105063334894
97,636231105063439964
97,636231105063545205
97,636231105063650112
97,636231105063755187
97,636231105063860248
97,636231105063965335
97,636231105064070422
97,636231105064175470
97,636231105064280561
97,636231105064385623
97,636231105064490876
97,636231105064600783
97,636231105064705861
97,636231105064811098
97,636231105064921180
97,636231105065026083
97,636231105065131328
97,636231105065236398
97,636231105065341476
97,636231105065446546
97,636231105065551440
97,636231105065656694
97,636231105065761768
97,636231105065866663
97,636231105065976920
97,636231105066081819
97,636231105066187072
97,636231105066291975
97,636231105066397045
97,636231105066502128
97,636231105066607373
97,636231105066712468
97,636231105066817350
97,636231105066927590
97,636231105067032502
97,636231105067137576
97,636231105067242817
97,636231105067347728
97,636231105067452961
97,636231105067558039
97,636231105067663113
97,636231105067768183
97,636231105067873073
97,636231105067978164
97,636231105068083238
97,636231105068188304
97,636231105068298377
94,636231105068398632
94,636231105068503543
94,636231105068608609
94,636231105068713858
94,636231105068818744
94,636231105068923823
94,636231105069029098
94,636231105069133966
94,636231105069234217
94,636231105069339295
94,636231105069444365
94,636231105069549447
94,636231105069654522
94,636231105069759403
94,636231105069864520
94,636231105069969628
94,636231105070074643
94,636231105070179717
94,636231105070284778
94,636231105070389848
94,636231105070499955
94,636231105070600184
94,636231105070705079
94,636231105070810161
94,636231105070915235
94,636231105071020297
94,636231105071125555
94,636231105071230440
94,636231105071340706
94,636231105071445609
94,636231105071550850
94,636231105071655762
94,636231105071761007
94,636231105071865893
94,636231105071970980
94,636231105072076045
94,636231105072181303
94,636231105072286373
94,636231105072391456
94,636231105072496354
94,636231105072601429
94,636231105072706494
94,636231105072811752
94,636231105072916818
94,636231105073021721
94,636231105073126966
94,636231105073232061
94,636231105073336951
94,636231105073442150
94,636231105073552261
94,636231105073657156
94,636231105073757406
94,636231105073862484
94,636231105073967559
94,636231105074072637
94,636231105074177519
94,636231105074282614
94,636231105074387688
94,636231105074497928
94,636231105074602917
94,636231105074707914
94,636231105074808147
94,636231105074913221
94,636231105075018120
94,636231105075123215
94,636231105075228456
94,636231105075333351
94,636231105075438596
94,636231105075543670
94,636231105075648748
94,636231105075753818
94,636231105075858725
94,636231105075958958
94,636231105076063870
94,636231105076168927
94,636231105076274005
94,636231105076379092
94,636231105076484337
94,636231105076589245
94,636231105076699314
91,636231105076809571
91,636231105076914461
91,636231105077019531
91,636231105077124609
91,636231105077234678
91,636231105077334954
91,636231105077439840
91,636231105077544902
91,636231105077650130
91,636231105077760229
91,636231105077865136
91,636231105077970381
91,636231105078075275
91,636231105078180529
91,636231105078285599
91,636231105078390511
91,636231105078495593
91,636231105078600821
91,636231105078710736
91,636231105078820835
91,636231105078925871
91,636231105079030949
91,636231105079136023
91,636231105079241102
91,636231105079346189
91,636231105079451421
91,636231105079556521
91,636231105079661407
91,636231105079771651
91,636231105079881541
91,636231105079981799
91,636231105080086873
91,636231105080191947
91,636231105080297022
91,636231105080402096
91,636231105080507174
91,636231105080612240
91,636231105080722150
91,636231105080832211
91,636231105080937289
91,636231105081042547
91,636231105081147638
91,636231105081252542
91,636231105081357586
91,636231105081462681
91,636231105081567730
91,636231105081673013
91,636231105081777886
91,636231105081882952
91,636231105081988214
91,636231105082098292
91,636231105082203370
91,636231105082313277
91,636231105082418518
91,636231105082523416
91,636231105082628670
91,636231105082733748
91,636231105082838626
91,636231105082943888
91,636231105083048774
91,636231105083153874
91,636231105083254102
91,636231105083359018
91,636231105083459247
91,636231105083564154
91,636231105083669228
91,636231105083774444
91,636231105083879377
91,636231105083984438
91,636231105084089696
91,636231105084194599
91,636231105084299656
91,636231105084404747
91,636231105084509988
91,636231105084615066
91,636231105084725144
91,636231105084830038
91,636231105084935292
91,636231105085040366
91,636231105085145261
87,636231105085255522
87,636231105085360412
87,636231105085465666
87,636231105085570740
87,636231105085680818
87,636231105085790712
87,636231105085900969
87,636231105086005880
87,636231105086111117
87,636231105086216007
87,636231105086321269
87,636231105086426164
87,636231105086531247
87,636231105086636325
87,636231105086746385
87,636231105086851541
87,636231105086956529
87,636231105087061787
87,636231105087166861
87,636231105087271769
87,636231105087376830
87,636231105087481908
87,636231105087586978
87,636231105087692065
87,636231105087797315
87,636231105087902213
87,636231105088007275
87,636231105088112528
87,636231105088217436
87,636231105088322689
87,636231105088427759
87,636231105088537837
87,636231105088647739
87,636231105088752822
87,636231105088857887
87,636231105088963141
87,636231105089068035
87,636231105089173097
87,636231105089278184
87,636231105089383245
87,636231105089493340
87,636231105089598401
87,636231105089703475
87,636231105089808570
87,636231105089913614
87,636231105090018719
87,636231105090123771
87,636231105090229025
87,636231105090334103
87,636231105090439169
87,636231105090544068
87,636231105090649155
87,636231105090754211
87,636231105090859298
87,636231105090964360
87,636231105091069429
87,636231105091174512
87,636231105091279774
87,636231105091384656
87,636231105091489923
87,636231105091594808
87,636231105091700062
87,636231105091804957
87,636231105091910039
87,636231105092010307
87,636231105092115364
87,636231105092220258
87,636231105092325319
87,636231105092430577
87,636231105092535489
87,636231105092640546
87,636231105092745629
87,636231105092850707
87,636231105092955952
87,636231105093060838
87,636231105093165929
87,636231105093271170
87,636231105093376248
87,636231105093481318
87,636231105093586221
87,636231105093691304
83,636231105093796365
83,636231105093901610
83,636231105094006505
83,636231105094111763
83,636231105094216666
83,636231105094321915
83,636231105094426989
83,636231105094532055
83,636231105094637129
83,636231105094742036
83,636231105094847281
83,636231105094952351
83,636231105095057246
83,636231105095162315
83,636231105095267578
83,636231105095372468
83,636231105095477555
83,636231105095587637
83,636231105095692707
83,636231105095797772
83,636231105095898018
83,636231105096002917
83,636231105096108175
83,636231105096213245
83,636231105096318135
83,636231105096423397
83,636231105096528296
83,636231105096633541
83,636231105096738619
83,636231105096843655
83,636231105096948759
83,636231105097053671
83,636231105097158907
83,636231105097263797
83,636231105097373892
83,636231105097478966
83,636231105097584027
83,636231105097689101
83,636231105097794180
83,636231105097899434
83,636231105098004328
83,636231105098109582
83,636231105098214652
83,636231105098319563
83,636231105098424804
83,636231105098529694
83,636231105098639785
83,636231105098745034
83,636231105098849933
83,636231105098955015
83,636231105099065251
83,636231105099170150
83,636231105099275404
83,636231105099380482
83,636231105099490389
83,636231105099595630
83,636231105099700524
83,636231105099805782
83,636231105099910681
83,636231105100015751
83,636231105100121000
83,636231105100225912
83,636231105100330964
83,636231105100436038
83,636231105100541305
83,636231105100646370
83,636231105100751466
83,636231105100856519
83,636231105100961597
83,636231105101066671
83,636231105101171741
83,636231105101276648
83,636231105101381705
83,636231105101486792
83,636231105101592037
83,636231105101697116
80,636231105101802019
80,636231105101907076
80,636231105102012175
80,636231105102117237
80,636231105102222302
80,636231105102327560
80,636231105102432459
80,636231105102537708
80,636231105102642774
80,636231105102747668
80,636231105102852760
80,636231105102958000
80,636231105103063075
80,636231105103168149
80,636231105103273039
80,636231105103378113
80,636231105103483379
80,636231105103588445
80,636231105103693485
80,636231105103798414
80,636231105103903663
80,636231105104008737
80,636231105104113649
80,636231105104223705
80,636231105104328796
80,636231105104438869
80,636231105104543948
80,636231105104649005
80,636231105104754293
80,636231105104864366
80,636231105104969415
80,636231105105074322
80,636231105105179387
80,636231105105284457
80,636231105105389715
80,636231105105494618
80,636231105105599863
80,636231105105704942
80,636231105105810024
80,636231105105919901
80,636231105106024992
80,636231105106135249
80,636231105106240144
80,636231105106345385
80,636231105106450279
80,636231105106550534
80,636231105106655514
80,636231105106760686
80,636231105106870576
80,636231105106970860
80,636231105107080724
80,636231105107185798
80,636231105107290872
80,636231105107395946
80,636231105107501033
80,636231105107606278
80,636231105107716176
80,636231105107826245
80,636231105107931507
80,636231105108036582
80,636231105108141656
80,636231105108251554
80,636231105108356628
80,636231105108461886
80,636231105108566784
80,636231105108671867
80,636231105108776937
80,636231105108882178
80,636231105108987132
80,636231105109092142
78,636231105109197421
78,636231105109302496
78,636231105109407565
78,636231105109512451
78,636231105109617508
78,636231105109727770
78,636231105109832681
78,636231105109937922
78,636231105110042817
78,636231105110147899
78,636231105110257977
78,636231105110363218
78,636231105110468296
78,636231105110578207
78,636231105110683268
78,636231105110788518
78,636231105110893600
78,636231105110998670
78,636231105111103560
78,636231105111208814
78,636231105111313892
78,636231105111423795
78,636231105111524041
78,636231105111628944
78,636231105111734022
78,636231105111844087
78,636231105111949152
78,636231105112054244
78,636231105112159489
78,636231105112264392
78,636231105112369637
78,636231105112479710
78,636231105112584626
78,636231105112689687
78,636231105112794766
78,636231105112899823
78,636231105113005106
78,636231105113109988
78,636231105113215263
78,636231105113320329
78,636231105113425197
78,636231105113530451
78,636231105113635363
78,636231105113745620
78,636231105113855680
78,636231105113960584
78,636231105114065653
78,636231105114170740
78,636231105114275943
78,636231105114380884
78,636231105114490949
78,636231105114596215
78,636231105114701101
78,636231105114806188
78,636231105114911250
78,636231105115016345
78,636231105115121582
78,636231105115226468
78,636231105115326743
78,636231105115431629
78,636231105115536691
78,636231105115641782
78,636231105115752026
78,636231105115857092
78,636231105115961999
78,636231105116067065
78,636231105116177142
78,636231105116282255
78,636231105116387303
78,636231105116497381
78,636231105116607446
75,636231105116712524
75,636231105116817607
75,636231105116917861
75,636231105117022756
75,636231105117127825
75,636231105117237903
75,636231105117342964
75,636231105117448051
75,636231105117553125
75,636231105117658366
75,636231105117763269
75,636231105117868514
75,636231105117973405
75,636231105118078483
75,636231105118183553
75,636231105118288811
75,636231105118393898
75,636231105118498796
75,636231105118603849
75,636231105118708923
75,636231105118814002
75,636231105118919264
75,636231105119024154
75,636231105119129228
75,636231105119234294
75,636231105119339385
75,636231105119444643
75,636231105119549516
75,636231105119654795
75,636231105119759681
75,636231105119864926
75,636231105119969825
75,636231105120075070
75,636231105120179973
75,636231105120285035
75,636231105120390121
75,636231105120500199
75,636231105120605444
75,636231105120710514
75,636231105120815408
75,636231105120920662
75,636231105121030744
75,636231105121135647
75,636231105121240708
75,636231105121345804
75,636231105121451040
75,636231105121556136
75,636231105121661227
75,636231105121766104
75,636231105121871337
75,636231105121976240
75,636231105122081489
75,636231105122186559
75,636231105122291449
75,636231105122401540
75,636231105122504009
75,636231105122609079
75,636231105122714175
75,636231105122819232
75,636231105122924306
75,636231105123029388
75,636231105123134454
75,636231105123244540
75,636231105123354609
75,636231105123459867
75,636231105123564770
75,636231105123669836
75,636231105123774918
75,636231105123879984
75,636231105123985058
75,636231105124095320
75,636231105124200218
75,636231105124305297
75,636231105124410349
75,636231105124515607
75,636231105124620690
75,636231105124725760
75,636231105124830838
75,636231105124935908
75,636231105125040982
75,636231105125151060
75,636231105125255954
75,636231105125361028
75,636231105125466286
75,636231105125571352
75,636231105125676263
75,636231105125781320
75,636231105125886617
75,636231105125991469
75,636231105126096735
75,636231105126201796
75,636231105126306716
75,636231105126411949
75,636231105126517031
75,636231105126621943
75,636231105126726987
75,636231105126832066
75,636231105126937324
75,636231105127042393
75,636231105127152300
75,636231105127257383
75,636231105127362452
75,636231105127467518
75,636231105127572601
75,636231105127677658
75,636231105127782744
75,636231105127888011
75,636231105127993102
75,636231105128097971
75,636231105128203216
75,636231105128308286
75,636231105128413356
75,636231105128518267
75,636231105128623504
75,636231105128728411
75,636231105128833661
75,636231105128938564
75,636231105129043625
75,636231105129148874
75,636231105129258790
75,636231105129364026
75,636231105129468942
75,636231105129579015
75,636231105129684072
75,636231105129789151
75,636231105129894430
75,636231105129999359
75,636231105130104381
75,636231105130209447
75,636231105130314701
75,636231105130419775
75,636231105130529852
75,636231105130634931
75,636231105130745004
75,636231105130849907
75,636231105130954964
75,636231105131060055
75,636231105131165305
75,636231105131270191
75,636231105131375261
75,636231105131480339
75,636231105131590425
75,636231105131700516
75,636231105131805585
75,636231105131910830
75,636231105132015905
75,636231105132120795
75,636231105132226048
75,636231105132330986
75,636231105132436030
75,636231105132541271
75,636231105132646182
75,636231105132751423
75,636231105132856489
75,636231105132961409
75,636231105133066457
75,636231105133171544
75,636231105133276610
75,636231105133381692
75,636231105133486950
75,636231105133591853
75,636231105133701910
75,636231105133806992
75,636231105133912242
75,636231105134017145
75,636231105134122210
75,636231105134227276
75,636231105134332358
75,636231105134437441
75,636231105134542507
75,636231105134647752
75,636231105134752663
75,636231105134857904
75,636231105134962794
75,636231105135068052
75,636231105135172943
75,636231105135273201
75,636231105135378092
75,636231105135488182
75,636231105135593427
75,636231105135698497
75,636231105135808395
75,636231105135913473
75,636231105136018556
75,636231105136123634
75,636231105136233691
75,636231105136343781
75,636231105136449022
75,636231105136554113
75,636231105136659003
75,636231105136764270
75,636231105136869327
75,636231105136979404
75,636231105137084474
75,636231105137194552
75,636231105137299463
75,636231105137404520
75,636231105137509778
75,636231105137614681
75,636231105137719922
75,636231105137829846
75,636231105137934890
75,636231105138039973
75,636231105138150050
75,636231105138255133
77,636231105138360207
77,636231105138465444
77,636231105138575342
77,636231105138680416
77,636231105138785490
77,636231105138890585
77,636231105139000659
77,636231105139105724
77,636231105139210807
77,636231105139316048
77,636231105139426130
77,636231105139531200
77,636231105139636111
77,636231105139741365
77,636231105139846418
77,636231105139951500
77,636231105140056395
77,636231105140161486
77,636231105140266718
77,636231105140371831
77,636231105140476712
77,636231105140581761
77,636231105140692018
77,636231105140797092
77,636231105140902162
77,636231105141007240
77,636231105141112126
77,636231105141212385
77,636231105141317463
77,636231105141422349
77,636231105141527607
77,636231105141632515
77,636231105141737572
77,636231105141842663
77,636231105141947904
77,636231105142052973
77,636231105142157885
77,636231105142262951
77,636231105142373020
77,636231105142478290
77,636231105142583168
77,636231105142688473
77,636231105142793316
77,636231105142898407
77,636231105143003648
77,636231105143108718
77,636231105143213629
77,636231105143318879
77,636231105143423944
77,636231105143529019
77,636231105143633913
77,636231105143739171
77,636231105143849060
77,636231105143954318
77,636231105144059392
77,636231105144164283
77,636231105144274360
77,636231105144379434
77,636231105144484508
77,636231105144589583
77,636231105144694674
77,636231105144799748
77,636231105144904989
77,636231105145009892
77,636231105145114970
77,636231105145220207
77,636231105145325289
77,636231105145430359
77,636231105145535433
77,636231105145640336
78,636231105145745581
78,636231105145850485
78,636231105145955546
78,636231105146060722
78,636231105146165698
78,636231105146270785
78,636231105146375846
78,636231105146480920
78,636231105146586178
78,636231105146691274
78,636231105146796138
78,636231105146901422
78,636231105147006287
78,636231105147111553
78,636231105147216448
78,636231105147321526
78,636231105147426587
78,636231105147531845
78,636231105147636748
78,636231105147742002
78,636231105147846879
78,636231105147952137
78,636231105148057211
78,636231105148162123
78,636231105148267360
78,636231105148372447
78,636231105148477332
78,636231105148582419
78,636231105148687489
78,636231105148797567
78,636231105148907841
78,636231105149012949
78,636231105149117989
78,636231105149223051
78,636231105149332940
78,636231105149438006
78,636231105149543255
78,636231105149648150
78,636231105149753412
78,636231105149863323
78,636231105149968392
78,636231105150073633
78,636231105150178524
78,636231105150283615
78,636231105150388680
78,636231105150493750
78,636231105150598850
78,636231105150703924
78,636231105150808972
78,636231105150914038
78,636231105151024325
78,636231105151129215
78,636231105151234460
78,636231105151344542
78,636231105151449608
78,636231105151554678
78,636231105151659568
78,636231105151764659
78,636231105151874724
78,636231105151979943
78,636231105152085056
78,636231105152189959
78,636231105152295204
78,636231105152400274
78,636231105152505177
78,636231105152610435
80,636231105152715317
80,636231105152820391
80,636231105152925460
80,636231105153030723
80,636231105153135609
80,636231105153235884
80,636231105153340963
80,636231105153446041
80,636231105153551090
80,636231105153655976
80,636231105153761242
80,636231105153871196
80,636231105153976201
80,636231105154081284
80,636231105154186533
80,636231105154296444
80,636231105154401497
80,636231105154506764
80,636231105154611649
80,636231105154716724
80,636231105154821798
80,636231105154926867
80,636231105155032130
80,636231105155142032
80,636231105155247281
80,636231105155352193
80,636231105155457434
80,636231105155562525
80,636231105155667411
80,636231105155772464
80,636231105155877546
80,636231105155982800
80,636231105156092878
80,636231105156197952
80,636231105156303030
80,636231105156408100
80,636231105156513178
80,636231105156618086
80,636231105156723138
80,636231105156828217
80,636231105156933291
80,636231105157038386
80,636231105157148442
80,636231105157248693
80,636231105157353792
80,636231105157458661
80,636231105157563936
80,636231105157668822
80,636231105157773896
80,636231105157883957
80,636231105157989031
80,636231105158094289
80,636231105158199372
80,636231105158304437
80,636231105158409349
80,636231105158514401
80,636231105158619659
80,636231105158724550
80,636231105158824808
80,636231105158929878
80,636231105159034790
80,636231105159139847
80,636231105159245105
80,636231105159350174
80,636231105159455253
82,636231105159560147
82,636231105159660419
82,636231105159765283
82,636231105159870563
82,636231105159975650
82,636231105160080510
82,636231105160185588
82,636231105160290756
82,636231105160395745
82,636231105160500802
82,636231105160610897
82,636231105160715971
82,636231105160821212
82,636231105160926128
82,636231105161031360
82,636231105161136250
82,636231105161236500
82,636231105161341583
82,636231105161446495
82,636231105161551727
82,636231105161656827
82,636231105161761914
82,636231105161866975
82,636231105161972045
82,636231105162077097
82,636231105162181987
82,636231105162282246
82,636231105162387149
82,636231105162492223
82,636231105162602292
82,636231105162707358
82,636231105162812620
82,636231105162917686
82,636231105163022602
82,636231105163127838
82,636231105163232724
82,636231105163337807
82,636231105163442877
82,636231105163548135
82,636231105163653072
82,636231105163758283
82,636231105163863190
82,636231105163968247
82,636231105164073505
82,636231105164178399
82,636231105164283469
82,636231105164388543
82,636231105164493801
82,636231105164598700
82,636231105164703783
82,636231105164809028
82,636231105164913931
82,636231105165024184
82,636231105165129254
82,636231105165234157
82,636231105165344222
82,636231105165454299
82,636231105165564377
82,636231105165674450
82,636231105165779520
82,636231105165884598
82,636231105165989856
82,636231105166094930
82,636231105166204833
82,636231105166305079
82,636231105166409969
82,636231105166515043
82,636231105166615302
82,636231105166720209
82,636231105166825445
83,636231105166930340
83,636231105167035589
83,636231105167140668
83,636231105167245750
83,636231105167350662
83,636231105167455890
83,636231105167560789
83,636231105167665867
83,636231105167770928
83,636231105167876002
83,636231105167981077
83,636231105168086339
83,636231105168191409
83,636231105168296483
83,636231105168401373
83,636231105168506631
83,636231105168611538
83,636231105168716775
83,636231105168821674
83,636231105168926923
83,636231105169031835
83,636231105169137075
83,636231105169241983
83,636231105169347224
83,636231105169452293
83,636231105169562213
83,636231105169667454
83,636231105169772357
83,636231105169877598
83,636231105169982488
83,636231105170092749
83,636231105170197657
83,636231105170302731
83,636231105170412808
83,636231105170517865
83,636231105170622952
83,636231105170728035
83,636231105170833272
83,636231105170943375
83,636231105171048252
83,636231105171153313
83,636231105171258576
83,636231105171363462
83,636231105171468536
83,636231105171573794
83,636231105171678697
83,636231105171783762
83,636231105171888845
83,636231105171993928
83,636231105172098993
83,636231105172204268
83,636231105172309334
83,636231105172414215
83,636231105172519465
83,636231105172624535
83,636231105172734612
83,636231105172839520
83,636231105172944589
83,636231105173049839
83,636231105173154746
83,636231105173259987
83,636231105173364890
83,636231105173469951
83,636231105173575025
83,636231105173680112
83,636231105173785165
83,636231105173890256
83,636231105173995335
83,636231105174100575
83,636231105174205654
83,636231105174310724
83,636231105174420801
83,636231105174525875
83,636231105174630765
83,636231105174735840
82,636231105174841098
82,636231105174946172
82,636231105175056249
82,636231105175161152
82,636231105175266397
82,636231105175371305
82,636231105175476362
82,636231105175581453
82,636231105175686694
82,636231105175791776
82,636231105175896658
82,636231105176001745
82,636231105176111827
82,636231105176222088
82,636231105176327141
82,636231105176432040
82,636231105176537127
82,636231105176642363
82,636231105176747262
82,636231105176852336
82,636231105176962431
82,636231105177067685
82,636231105177177754
82,636231105177282648
82,636231105177387898
82,636231105177497975
82,636231105177603045
82,636231105177707952
82,636231105177813193
82,636231105177918088
82,636231105178023166
82,636231105178128232
82,636231105178228486
82,636231105178333582
82,636231105178438450
82,636231105178543542
82,636231105178648611
82,636231105178753857
82,636231105178858764
82,636231105178964009
82,636231105179069087
82,636231105179174157
82,636231105179279043
82,636231105179379302
82,636231105179489375
82,636231105179594265
82,636231105179699339
82,636231105179804597
82,636231105179914675
82,636231105180024671
82,636231105180129651
82,636231105180234721
82,636231105180339791
82,636231105180445062
82,636231105180550149
82,636231105180655240
82,636231105180760087
82,636231105180865363
82,636231105180970253
82,636231105181075498
82,636231105181180384
82,636231105181285462
82,636231105181390536
82,636231105181495623
82,636231105181600680
82,636231105181705759
82,636231105181811017
82,636231105181915907
82,636231105182020998
82,636231105182126239
82,636231105182231129
82,636231105182336220
82,636231105182446276
82,636231105182551355
82,636231105182656638
82,636231105182761499
82,636231105182866590
82,636231105182971835
82,636231105183076905
82,636231105183181799
82,636231105183287057
82,636231105183391960
82,636231105183497205
82,636231105183602185
82,636231105183707183
82,636231105183812248
82,636231105183917498
82,636231105184022576
82,636231105184127646
82,636231105184237544
82,636231105184342614
82,636231105184447688
82,636231105184552766
82,636231105184657849
82,636231105184763094
82,636231105184867984
82,636231105184973246
82,636231105185078132
82,636231105185183206
82,636231105185293472
82,636231105185398354
82,636231105185508453
82,636231105185613689
82,636231105185718768
82,636231105185823675
82,636231105185928920
82,636231105186038993
82,636231105186144068
82,636231105186249142
82,636231105186354049
82,636231105186459132
82,636231105186564180
82,636231105186674446
82,636231105186779332
82,636231105186884406
82,636231105186989510
82,636231105187094558
82,636231105187199812
82,636231105187304886
82,636231105187409781
82,636231105187520038
82,636231105187625112
82,636231105187730186
82,636231105187835264
82,636231105187940334
82,636231105188045408
82,636231105188150482
82,636231105188255373
82,636231105188360635
82,636231105188465705
82,636231105188570595
82,636231105188675669
82,636231105188780760
82,636231105188885834
82,636231105188991101
82,636231105189101178
82,636231105189206257
82,636231105189311318
82,636231105189421413
82,636231105189526453
82,636231105189631527
82,636231105189736614
82,636231105189841512
82,636231105189946766
82,636231105190051819
82,636231105190156901
82,636231105190261787
82,636231105190367045
82,636231105190472115
82,636231105190577014
81,636231105190687092
81,636231105190792345
81,636231105190897419
81,636231105191002515
81,636231105191112601
81,636231105191217671
81,636231105191322719
81,636231105191427798
81,636231105191537871
81,636231105191647786
81,636231105191752839
81,636231105191853106
81,636231105191957983
81,636231105192058238
81,636231105192163308
81,636231105192268202
81,636231105192378293
81,636231105192483538
81,636231105192588616
81,636231105192693506
81,636231105192798580
81,636231105192903843
81,636231105193008729
81,636231105193113811
81,636231105193223885
81,636231105193328963
81,636231105193434063
81,636231105193539111
81,636231105193644356
81,636231105193749435
81,636231105193854470
81,636231105193959407
81,636231105194064486
81,636231105194169547
81,636231105194279629
81,636231105194384780
81,636231105194494956
81,636231105194600039
81,636231105194709992
81,636231105194815002
81,636231105194920081
81,636231105195025339
81,636231105195130216
81,636231105195235311
81,636231105195340574
81,636231105195445464
81,636231105195550700
81,636231105195655783
81,636231105195760665
81,636231105195865923
81,636231105195971005
81,636231105196081079
81,636231105196186144
81,636231105196291052
81,636231105196401305
81,636231105196506370
81,636231105196611277
81,636231105196716339
81,636231105196821417
81,636231105196926491
81,636231105197031557
81,636231105197136815
81,636231105197241722
81,636231105197346993
81,636231105197452037
81,636231105197557120
81,636231105197662189
81,636231105197767092
81,636231105197872338
81,636231105197977232
81,636231105198082298
81,636231105198187372
81,636231105198292630
81,636231105198397537
81,636231105198502778
81,636231105198607672
81,636231105198712930
81,636231105198817820
81,636231105198923087
81,636231105199027986
81,636231105199133038
81,636231105199238134
81,636231105199348378
81,636231105199453281
81,636231105199558338
81,636231105199668433
81,636231105199773490
81,636231105199878581
81,636231105199983831
81,636231105200088729
81,636231105200198978
81,636231105200304048
81,636231105200408942
81,636231105200514196
81,636231105200624278
81,636231105200729361
81,636231105200839438
81,636231105200944337
81,636231105201049582
81,636231105201159480
81,636231105201264734
81,636231105201369633
81,636231105201479697
81,636231105201584972
81,636231105201695076
81,636231105201800128
81,636231105201905010
81,636231105202015075
81,636231105202125153
81,636231105202235243
81,636231105202345496
81,636231105202450566
81,636231105202555636
81,636231105202660714
81,636231105202765617
81,636231105202870862
81,636231105202975769
81,636231105203080826
81,636231105203190908
81,636231105203295991
81,636231105203401236
81,636231105203506327
81,636231105203611414
81,636231105203716484
81,636231105203821537
81,636231105203926440
81,636231105204031510
81,636231105204136755
81,636231105204241829
81,636231105204346903
81,636231105204451973
81,636231105204557047
81,636231105204662125
81,636231105204767028
81,636231105204872102
81,636231105204977181
81,636231105205082430
81,636231105205187359
81,636231105205292403
81,636231105205397477
81,636231105205502722
81,636231105205607796
80,636231105205717891
80,636231105205822764
80,636231105205928022
80,636231105206032912
80,636231105206137982
80,636231105206243069
80,636231105206348130
80,636231105206453204
80,636231105206558291
80,636231105206663549
80,636231105206768611
80,636231105206873501
80,636231105206978571
80,636231105207083833
80,636231105207193727
80,636231105207298985
80,636231105207403875
80,636231105207508949
80,636231105207614027
80,636231105207719110
80,636231105207824180
80,636231105207929241
80,636231105208034529
80,636231105208139582
80,636231105208244686
80,636231105208349730
80,636231105208459632
80,636231105208569881
80,636231105208679984
80,636231105208789861
80,636231105208900118
80,636231105209005188
80,636231105209110091
80,636231105209215156
80,636231105209320226
80,636231105209425296
80,636231105209530554
80,636231105209635465
80,636231105209740531
80,636231105209845785
80,636231105209955670
80,636231105210060761
80,636231105210166036
80,636231105210270896
80,636231105210375988
80,636231105210486236
80,636231105210596310
80,636231105210706216
80,636231105210811461
80,636231105210916531
80,636231105211021609
80,636231105211126517
80,636231105211231587
80,636231105211336845
80,636231105211441906
80,636231105211546976
80,636231105211656891
80,636231105211761999
80,636231105211867201
80,636231105211972096
80,636231105212077358
80,636231105212182257
80,636231105212287506
80,636231105212392602
80,636231105212497488
80,636231105212607561
80,636231105212712802
80,636231105212817692
80,636231105212927958
80,636231105213033023
80,636231105213137927
80,636231105213243176
80,636231105213348079
80,636231105213453136
80,636231105213558214
80,636231105213663477
80,636231105213768362
80,636231105213873449
80,636231105213978511
80,636231105214083589
80,636231105214188667
80,636231105214298749
80,636231105214403811
80,636231105214509094
80,636231105214614155
80,636231105214719217
80,636231105214824287
80,636231105214934185
80,636231105215039443
80,636231105215144346
80,636231105215249595
80,636231105215354669
80,636231105215459735
80,636231105215564809
80,636231105215669891
80,636231105215774777
80,636231105215879851
80,636231105215984925
80,636231105216085184
80,636231105216190254
80,636231105216295328
80,636231105216400235
80,636231105216505288
80,636231105216610384
80,636231105216715436
80,636231105216820720
80,636231105216925610
80,636231105217030659
80,636231105217135917
80,636231105217240995
80,636231105217350901
80,636231105217456147
80,636231105217561225
80,636231105217666291
80,636231105217771198
80,636231105217881258
80,636231105217986341
80,636231105218091432
80,636231105218196489
80,636231105218301559
80,636231105218406646
80,636231105218511716
80,636231105218616794
80,636231105218722044
80,636231105218827139
80,636231105218932209
80,636231105219037193
80,636231105219142152
80,636231105219247239
80,636231105219352488
80,636231105219457374
80,636231105219562444
80,636231105219667578
80,636231105219772831
80,636231105219882738
80,636231105219992982
80,636231105220097868
80,636231105220203126
80,636231105220308042
80,636231105220413103
80,636231105220518361
80,636231105220623247
79,636231105220728330
79,636231105220833605
79,636231105220938465
79,636231105221038763
79,636231105221143606
79,636231105221248872
79,636231105221353780
79,636231105221459020
79,636231105221563919
79,636231105221668998
79,636231105221774055
79,636231105221879141
79,636231105221984211
79,636231105222089273
79,636231105222199372
79,636231105222304424
79,636231105222409507
79,636231105222514756
79,636231105222619647
79,636231105222724751
79,636231105222830000
79,636231105222935078
79,636231105223040131
79,636231105223145017
79,636231105223250275
79,636231105223355358
79,636231105223460256
79,636231105223565502
79,636231105223670392
79,636231105223775645
79,636231105223880544
79,636231105223985794
79,636231105224095880
79,636231105224200950
79,636231105224306019
79,636231105224411102
79,636231105224515997
79,636231105224626254
79,636231105224731148
79,636231105224836209
79,636231105224941467
79,636231105225046375
79,636231105225151436
79,636231105225256690
79,636231105225366588
79,636231105225476665
79,636231105225581752
79,636231105225686814
79,636231105225791883
79,636231105225901991
79,636231105226007039
79,636231105226112135
79,636231105226217371
79,636231105226322274
79,636231105226427340
79,636231105226532594
79,636231105226637484
79,636231105226742746
79,636231105226852841
79,636231105226957705
79,636231105227062809
79,636231105227167879
79,636231105227272936
79,636231105227378002
79,636231105227488109
79,636231105227593342
79,636231105227698232
79,636231105227803490
79,636231105227908564
79,636231105228013458
78,636231105228118558
78,636231105228223602
78,636231105228328732
78,636231105228433772
78,636231105228539013
78,636231105228643903
78,636231105228753993
78,636231105228854248
78,636231105228959121
78,636231105229064208
78,636231105229169273
78,636231105229274356
78,636231105229379417
78,636231105229484675
78,636231105229589745
78,636231105229699643
78,636231105229804905
78,636231105229909971
78,636231105230014865
78,636231105230119935
78,636231105230230210
78,636231105230335275
78,636231105230440170
78,636231105230545261
78,636231105230650322
78,636231105230755388
78,636231105230860474
78,636231105230965536
78,636231105231070789
78,636231105231175898
78,636231105231280985
78,636231105231385849
78,636231105231491094
78,636231105231595985
78,636231105231701054
78,636231105231806308
78,636231105231911220
78,636231105232016289
78,636231105232121530
78,636231105232226613
78,636231105232336498
78,636231105232441589
78,636231105232546834
78,636231105232651738
78,636231105232756991
78,636231105232861877
78,636231105232967139
78,636231105233072201
78,636231105233177095
78,636231105233277397
78,636231105233382244
78,636231105233487335
78,636231105233592388
78,636231105233697642
78,636231105233802720
78,636231105233907790
78,636231105234012701
78,636231105234117758
78,636231105234222850
78,636231105234327902
78,636231105234433160
78,636231105234538068
78,636231105234643150
78,636231105234748216
78,636231105234858289
78,636231105234958535
78,636231105235063451
78,636231105235168504
78,636231105235273586
78,636231105235378648
78,636231105235483722
78,636231105235583993
78,636231105235689054
78,636231105235793940
78,636231105235899198
78,636231105236004110
78,636231105236109347
78,636231105236214254
78,636231105236319324
78,636231105236424406
78,636231105236529643
78,636231105236634713
78,636231105236744799
78,636231105236849698
78,636231105236954759
78,636231105237059837
78,636231105237164924
78,636231105237270161
78,636231105237380268
78,636231105237485150
78,636231105237590395
78,636231105237700285
78,636231105237805359
78,636231105237905622
78,636231105238010687
78,636231105238115770
78,636231105238220840
78,636231105238325721
78,636231105238430984
78,636231105238536066
78,636231105238640961
78,636231105238741211
78,636231105238846285
78,636231105238951346
78,636231105239056266
78,636231105239156499
78,636231105239261398
78,636231105239366648
78,636231105239471717
78,636231105239576608
78,636231105239681896
78,636231105239786961
78,636231105239892018
78,636231105239997088
78,636231105240102166
78,636231105240207052
78,636231105240312314
78,636231105240417213
78,636231105240522270
78,636231105240627349
78,636231105240732435
78,636231105240837681
78,636231105240942755
78,636231105241047662
78,636231105241152732
78,636231105241257802
78,636231105241362889
78,636231105241468121
78,636231105241573195
78,636231105241683277
78,636231105241788351
78,636231105241898424
78,636231105242003503
78,636231105242108572
78,636231105242218470
78,636231105242323557
78,636231105242428803
78,636231105242533693
78,636231105242638951
79,636231105242743862
79,636231105242849129
79,636231105242954177
79,636231105243059260
79,636231105243164137
79,636231105243269211
79,636231105243374285
79,636231105243479360
79,636231105243584451
79,636231105243694699
79,636231105243799769
79,636231105243904655
79,636231105244009746
79,636231105244114808
79,636231105244220066
79,636231105244324977
79,636231105244430218
79,636231105244535288
79,636231105244640371
79,636231105244745252
79,636231105244850339
79,636231105244955400
79,636231105245060492
79,636231105245170732
79,636231105245275630
79,636231105245380717
79,636231105245485779
79,636231105245590844
79,636231105245695940
79,636231105245801181
79,636231105245906079
79,636231105246006372
79,636231105246111416
79,636231105246216495
79,636231105246321569
79,636231105246426630
79,636231105246531533
79,636231105246636770
79,636231105246741840
79,636231105246846918
79,636231105246956996
79,636231105247061890
79,636231105247166973
79,636231105247267214
79,636231105247377108
79,636231105247482370
79,636231105247587269
79,636231105247692339
79,636231105247797404
79,636231105247902474
79,636231105248007570
79,636231105248112627
79,636231105248217722
79,636231105248322954
79,636231105248432874
79,636231105248538106
79,636231105248643001
79,636231105248748254
79,636231105248853333
79,636231105248958407
79,636231105249063293
79,636231105249168388
79,636231105249273625
79,636231105249378703
79,636231105249483773
79,636231105249588672
79,636231105249693767
80,636231105249798828
80,636231105249903911
80,636231105250013980
80,636231105250119221
80,636231105250224111
80,636231105250329211
80,636231105250434443
80,636231105250539351
80,636231105250649599
80,636231105250754673
80,636231105250859581
80,636231105250964822
80,636231105251069712
80,636231105251174970
80,636231105251279864
80,636231105251384930
80,636231105251490021
80,636231105251595099
80,636231105251700161
80,636231105251805252
80,636231105251910420
80,636231105252015391
80,636231105252120465
80,636231105252225544
80,636231105252330614
80,636231105252435859
80,636231105252540762
80,636231105252645823
80,636231105252751085
80,636231105252855993
80,636231105252961234
80,636231105253066303
80,636231105253171194
80,636231105253276280
80,636231105253381346
80,636231105253486433
80,636231105253591507
80,636231105253696752
80,636231105253801642
80,636231105253906725
80,636231105254011812
80,636231105254117044
80,636231105254222127
80,636231105254327214
80,636231105254432078
80,636231105254537336
80,636231105254647414
80,636231105254752497
80,636231105254857378
80,636231105254962645
80,636231105255067715
80,636231105255177608
80,636231105255282866
80,636231105255387774
80,636231105255493019
80,636231105255598106
80,636231105255702979
80,636231105255808066
80,636231105255913148
80,636231105256018197
80,636231105256123459
80,636231105256228358
80,636231105256333419
80,636231105256438681
80,636231105256543785
81,636231105256648676
81,636231105256753715
81,636231105256858811
81,636231105256969051
81,636231105257073963
81,636231105257179020
81,636231105257284094
81,636231105257384348
81,636231105257489418
81,636231105257594492
81,636231105257699570
81,636231105257804649
81,636231105257914722
81,636231105258019617
81,636231105258124691
81,636231105258229778
81,636231105258330015
81,636231105258434909
81,636231105258539975
81,636231105258645058
81,636231105258750311
81,636231105258855214
81,636231105258960459
81,636231105259065529
81,636231105259170603
81,636231105259275682
81,636231105259380568
81,636231105259485659
81,636231105259590908
81,636231105259700811
81,636231105259805868
81,636231105259911126
81,636231105260016016
81,636231105260121278
81,636231105260226164
81,636231105260331264
81,636231105260436496
81,636231105260541395
81,636231105260646465
81,636231105260756752
81,636231105260861616
81,636231105260966874
81,636231105261071953
81,636231105261182026
81,636231105261287104
81,636231105261392174
81,636231105261502252
81,636231105261607322
81,636231105261712216
81,636231105261817470
81,636231105261922360
81,636231105262027631
81,636231105262132696
81,636231105262242603
81,636231105262347848
81,636231105262452918
81,636231105262557829
81,636231105262663105
81,636231105262772964
81,636231105262873218
81,636231105262978109
81,636231105263083178
81,636231105263193286
81,636231105263298514
81,636231105263403421
81,636231105263508487
81,636231105263613741
81,636231105263718627
82,636231105263823885
82,636231105263928796
82,636231105264033849
82,636231105264143926
82,636231105264249026
82,636231105264354263
82,636231105264459196
82,636231105264559407
82,636231105264664302
82,636231105264769568
82,636231105264874450
82,636231105264979580
82,636231105265089593
82,636231105265194684
82,636231105265304749
82,636231105265409823
82,636231105265514910
82,636231105265620160
82,636231105265725046
82,636231105265830115
82,636231105265935378
82,636231105266040281
82,636231105266145359
82,636231105266250429
82,636231105266355490
82,636231105266460560
82,636231105266565638
82,636231105266670730
82,636231105266775791
82,636231105266880861
82,636231105266985935
82,636231105267091193
82,636231105267196079
82,636231105267301170
82,636231105267406227
82,636231105267511322
82,636231105267616563
82,636231105267721453
82,636231105267826540
82,636231105267931785
82,636231105268036693
82,636231105268141750
82,636231105268246820
82,636231105268352082
82,636231105268456976
82,636231105268562234
82,636231105268672124
82,636231105268777211
82,636231105268882285
82,636231105268987359
82,636231105269092420
82,636231105269197494
82,636231105269302564
82,636231105269412825
82,636231105269517904
82,636231105269622974
82,636231105269727881
82,636231105269833126
82,636231105269938196
82,636231105270043090
82,636231105270148177
82,636231105270253422
82,636231105270358330
82,636231105270463404
82,636231105270568457
82,636231105270673539
82,636231105270778609
82,636231105270883683
82,636231105270988757
82,636231105271093848
82,636231105271198910
82,636231105271304159
82,636231105271409233
82,636231105271514294
82,636231105271619386
82,636231105271724276
82,636231105271829363
82,636231105271934608
82,636231105272039682
82,636231105272149755
82,636231105272254838
82,636231105272359908
82,636231105272464982
82,636231105272574888
82,636231105272679954
82,636231105272785037
82,636231105272890115
82,636231105272995172
82,636231105273105267
82,636231105273210324
82,636231105273315603
82,636231105273420651
82,636231105273525734
82,636231105273630804
82,636231105273735698
82,636231105273840785
82,636231105273946026
82,636231105274050929
82,636231105274155986
82,636231105274261065
82,636231105274366318
82,636231105274471392
82,636231105274581290
82,636231105274686548
82,636231105274796472
82,636231105274901704
82,636231105275006774
82,636231105275111677
82,636231105275216738
82,636231105275321830
82,636231105275426899
82,636231105275531978
82,636231105275637048
82,636231105275742122
82,636231105275852182
82,636231105275957265
82,636231105276062519
82,636231105276167405
82,636231105276272667
82,636231105276382561
82,636231105276487819
82,636231105276592709
82,636231105276697967
82,636231105276803041
82,636231105276908123
82,636231105277013185
82,636231105277118259
82,636231105277223175
82,636231105277333248
82,636231105277438309
82,636231105277543563
82,636231105277648475
82,636231105277753544
82,636231105277858785
82,636231105277963675
82,636231105278063934
83,636231105278169004
83,636231105278273907
83,636231105278379156
83,636231105278484226
83,636231105278589134
83,636231105278694374
83,636231105278799277
83,636231105278904352
83,636231105279009592
83,636231105279114483
83,636231105279219565
83,636231105279324652
83,636231105279429718
83,636231105279534788
83,636231105279639857
83,636231105279744949
83,636231105279850219
83,636231105279955101
83,636231105280060167
83,636231105280165412
83,636231105280270298
83,636231105280375393
83,636231105280480450
83,636231105280585721
83,636231105280690615
83,636231105280795861
83,636231105280900926
83,636231105281006004
83,636231105281111074
83,636231105281215982
83,636231105281321064
83,636231105281426301
83,636231105281531191
83,636231105281641269
83,636231105281746347
83,636231105281851631
83,636231105281956487
83,636231105282061578
83,636231105282161815
83,636231105282266722
83,636231105282366960
83,636231105282476858
83,636231105282582120
83,636231105282687006
83,636231105282792076
83,636231105282897154
83,636231105283002241
83,636231105283107319
83,636231105283212565
83,636231105283317485
83,636231105283427528
83,636231105283532607
83,636231105283637676
83,636231105283742768
83,636231105283847842
83,636231105283953078
83,636231105284057973
83,636231105284168050
83,636231105284278132
83,636231105284383215
83,636231105284488293
83,636231105284593538
83,636231105284698608
83,636231105284803682
83,636231105284908761
83,636231105285013642
83,636231105285118738
83,636231105285223979
83,636231105285328886
83,636231105285434135
83,636231105285539017
83,636231105285644095
83,636231105285744346
83,636231105285849441
83,636231105285954331
83,636231105286064593
83,636231105286174478
83,636231105286279543
83,636231105286384609
83,636231105286489888
83,636231105286594945
83,636231105286700037
83,636231105286804922
83,636231105286909997
83,636231105287015242
83,636231105287120320
83,636231105287225219
83,636231105287330460
83,636231105287440537
83,636231105287550619
83,636231105287655527
83,636231105287760780
83,636231105287865841
83,636231105287970916
83,636231105288075806
83,636231105288180880
83,636231105288285971
83,636231105288391220
83,636231105288501290
83,636231105288606368
83,636231105288711438
83,636231105288816520
83,636231105288921586
83,636231105289026664
83,636231105289131734
83,636231105289236808
83,636231105289341878
83,636231105289446772
83,636231105289551868
83,636231105289656925
83,636231105289761999
83,636231105289867090
83,636231105289977146
83,636231105290082413
83,636231105290187303
83,636231105290292553
83,636231105290402468
83,636231105290507721
83,636231105290612808
83,636231105290717874
83,636231105290822743
83,636231105290927813
83,636231105291028071
83,636231105291132957
83,636231105291238215
83,636231105291343294
83,636231105291448197
83,636231105291553446
83,636231105291658332
83,636231105291758582
83,636231105291863477
83,636231105291968743
83,636231105292073646
83,636231105292183882
83,636231105292288798
83,636231105292399068
83,636231105292509137
83,636231105292614006
83,636231105292719264
83,636231105292824167
83,636231105292929416
83,636231105293039490
83,636231105293144568
82,636231105293249450
82,636231105293354712
82,636231105293459602
82,636231105293564693
82,636231105293669754
82,636231105293774841
82,636231105293880078
82,636231105293984972
82,636231105294090051
82,636231105294195138
82,636231105294300208
82,636231105294405448
82,636231105294515530
82,636231105294620600
82,636231105294725679
82,636231105294830603
82,636231105294935639
82,636231105295040717
82,636231105295145971
82,636231105295250869
82,636231105295361122
82,636231105295466034
82,636231105295571275
82,636231105295676165
82,636231105295781423
82,636231105295886317
82,636231105295996395
82,636231105296101473
82,636231105296211538
82,636231105296316617
82,636231105296421917
82,636231105296526949
82,636231105296631839
82,636231105296736922
82,636231105296842175
82,636231105296947057
82,636231105297052157
82,636231105297157222
82,636231105297262301
82,636231105297367541
82,636231105297477435
82,636231105297582509
82,636231105297687583
82,636231105297797682
82,636231105297902748
82,636231105298007835
82,636231105298112896
82,636231105298217957
82,636231105298323083
82,636231105298428118
82,636231105298533192
82,636231105298638249
82,636231105298743332
82,636231105298848406
82,636231105298953476
82,636231105299058563
82,636231105299163645
82,636231105299268694
82,636231105299373772
82,636231105299478859
82,636231105299583925
82,636231105299694178
82,636231105299799260
82,636231105299904326
82,636231105300014224
82,636231105300119315
82,636231105300229376
82,636231105300334445
82,636231105300439541
83,636231105300544777
83,636231105300649689
83,636231105300759762
83,636231105300870015
83,636231105300974897
83,636231105301079980
83,636231105301185067
83,636231105301290307
83,636231105301395202
83,636231105301500456
83,636231105301605530
83,636231105301710600
83,636231105301815511
83,636231105301920581
83,636231105302025822
83,636231105302130909
83,636231105302235970
83,636231105302340864
83,636231105302441119
83,636231105302546193
83,636231105302651083
83,636231105302756179
83,636231105302856412
83,636231105302961482
83,636231105303071563
83,636231105303176449
83,636231105303281523
83,636231105303386786
83,636231105303491689
83,636231105303596934
83,636231105303701837
83,636231105303807082
83,636231105303912160
83,636231105304017226
83,636231105304122116
83,636231105304227220
83,636231105304332281
83,636231105304437343
83,636231105304542438
83,636231105304647508
83,636231105304752565
83,636231105304862655
83,636231105304967717
83,636231105305077794
83,636231105305188056
83,636231105305293134
83,636231105305398200
83,636231105305503094
83,636231105305613168
83,636231105305718259
83,636231105305823500
83,636231105305933577
83,636231105306038656
83,636231105306143546
83,636231105306253636
83,636231105306358881
83,636231105306463780
83,636231105306568846
83,636231105306669100
83,636231105306774174
83,636231105306879278
83,636231105306984156
83,636231105307089392
83,636231105307194466
83,636231105307299378
83,636231105307404623
83,636231105307509697
83,636231105307614767
83,636231105307724845
83,636231105307829748
82,636231105307934993
82,636231105308039896
82,636231105308145137
82,636231105308250044
82,636231105308355110
82,636231105308460214
82,636231105308565266
82,636231105308670345
82,636231105308775581
82,636231105308880476
82,636231105308990562
82,636231105309095807
82,636231105309200702
82,636231105309300960
82,636231105309405859
82,636231105309511104
82,636231105309621182
82,636231105309726256
82,636231105309831146
82,636231105309936404
82,636231105310041290
82,636231105310146557
82,636231105310251438
82,636231105310356534
82,636231105310466628
82,636231105310571852
82,636231105310676747
82,636231105310781816
82,636231105310891911
82,636231105310996981
82,636231105311102230
82,636231105311207112
82,636231105311312190
82,636231105311417277
82,636231105311522522
82,636231105311627426
82,636231105311732482
82,636231105311837745
82,636231105311942819
82,636231105312047893
82,636231105312157975
82,636231105312263045
82,636231105312368114
82,636231105312473022
82,636231105312578079
82,636231105312683161
82,636231105312788227
82,636231105312893318
82,636231105312998392
82,636231105313103642
82,636231105313213715
82,636231105313318793
82,636231105313423675
82,636231105313528933
82,636231105313638827
82,636231105313743922
82,636231105313849163
82,636231105313954237
82,636231105314059307
82,636231105314164219
82,636231105314269293
82,636231105314374354
82,636231105314479428
82,636231105314584677
82,636231105314689580
82,636231105314794663
82,636231105314899724
82,636231105315004790
82,636231105315109885
82,636231105315215152
82,636231105315325225
82,636231105315430299
82,636231105315535185
82,636231105315645430
82,636231105315750504
82,636231105315855398
82,636231105315960481
82,636231105316065735
82,636231105316170612
82,636231105316280694
82,636231105316385956
82,636231105316491034
82,636231105316595929
82,636231105316701174
82,636231105316806064
82,636231105316911147
82,636231105317011389
82,636231105317116463
82,636231105317226574
82,636231105317336438
82,636231105317441696
82,636231105317546612
82,636231105317651673
82,636231105317761734
82,636231105317866992
82,636231105317971891
82,636231105318076973
82,636231105318182223
82,636231105318287121
82,636231105318392367
82,636231105318497253
82,636231105318602352
82,636231105318712409
82,636231105318817483
82,636231105318922557
82,636231105319032643
82,636231105319137708
82,636231105319242962
82,636231105319348062
82,636231105319452931
82,636231105319563188
82,636231105319668266
82,636231105319778156
82,636231105319883234
82,636231105319988325
82,636231105320093391
82,636231105320198469
82,636231105320303714
82,636231105320408622
82,636231105320513674
82,636231105320618766
82,636231105320728826
82,636231105320833913
82,636231105320938979
82,636231105321044053
82,636231105321149135
82,636231105321254201
82,636231105321359455
82,636231105321464362
82,636231105321569427
82,636231105321679496
82,636231105321784763
82,636231105321889670
82,636231105321994736
82,636231105322099801
82,636231105322205055
82,636231105322309962
82,636231105322415015
82,636231105322520277
82,636231105322625347
81,636231105322730425
81,636231105322835329
81,636231105322940407
81,636231105323045481
81,636231105323150538
81,636231105323255625
81,636231105323360870
81,636231105323470943
81,636231105323575838
81,636231105323680916
81,636231105323786003
81,636231105323891244
81,636231105323996147
81,636231105324101392
81,636231105324206295
81,636231105324311365
81,636231105324416614
81,636231105324521684
81,636231105324626763
81,636231105324731837
81,636231105324836748
81,636231105324946988
81,636231105325052063
81,636231105325156966
81,636231105325257203
81,636231105325362102
81,636231105325462352
81,636231105325567426
81,636231105325672526
81,636231105325782394
81,636231105325887468
81,636231105325997734
81,636231105326102628
81,636231105326207711
81,636231105326312952
81,636231105326422858
81,636231105326528099
81,636231105326638181
81,636231105326743071
81,636231105326848329
81,636231105326953408
81,636231105327058298
81,636231105327163547
81,636231105327268442
81,636231105327373524
81,636231105327478620
81,636231105327583677
81,636231105327688738
81,636231105327798824
81,636231105327904091
81,636231105328008968
81,636231105328114222
81,636231105328219300
81,636231105328324366
81,636231105328429277
81,636231105328534343
81,636231105328639408
81,636231105328744662
81,636231105328849740
81,636231105328954814
81,636231105329059722
81,636231105329164963
81,636231105329269857
81,636231105329374948
81,636231105329480022
81,636231105329585268
81,636231105329690329
81,636231105329795223
81,636231105329905485
81,636231105330010559
81,636231105330115449
81,636231105330225544
81,636231105330330789
81,636231105330440858
81,636231105330545753
81,636231105330650839
81,636231105330755918
81,636231105330861163
81,636231105330966233
81,636231105331071123
81,636231105331176193
81,636231105331281459
81,636231105331386525
81,636231105331491599
81,636231105331601501
81,636231105331706571
81,636231105331811662
81,636231105331916715
81,636231105332022011
81,636231105332127068
81,636231105332232160
81,636231105332342032
81,636231105332447281
81,636231105332552167
81,636231105332657237
81,636231105332762499
81,636231105332867411
81,636231105332972468
81,636231105333077555
81,636231105333182800
81,636231105333287870
81,636231105333392948
81,636231105333502838
81,636231105333607912
81,636231105333712994
81,636231105333818240
81,636231105333923318
81,636231105334028392
81,636231105334133462
81,636231105334238361
81,636231105334348614
81,636231105334453521
81,636231105334563770
81,636231105334668660
81,636231105334773730
81,636231105334878808
81,636231105334984066
81,636231105335089140
81,636231105335194034
81,636231105335299117
81,636231105335404183
81,636231105335509265
81,636231105335614344
81,636231105335719396
81,636231105335824475
81,636231105335929553
81,636231105336034627
81,636231105336139697
81,636231105336244844
81,636231105336350033
81,636231105336454932
81,636231105336560015
81,636231105336665063
81,636231105336770146
81,636231105336880215
81,636231105336985310
81,636231105337090363
81,636231105337200625
81,636231105337305699
81,636231105337410610
81,636231105337515663
81,636231105337620929
81,636231105337730999
81,636231105337835897
81,636231105337936147
81,636231105338041046
81,636231105338146112
81,636231105338251186
81,636231105338356281
81,636231105338461351
81,636231105338566425
81,636231105338671559
81,636231105338781744
81,636231105338886647
81,636231105338991708
81,636231105339101970
81,636231105339207039
81,636231105339311938
81,636231105339417196
81,636231105339522078
81,636231105339627177
81,636231105339732431
81,636231105339842308
81,636231105339947408
81,636231105340052460
81,636231105340157530
81,636231105340262600
81,636231105340367683
81,636231105340472752
81,636231105340577835
81,636231105340683084
81,636231105340793162
81,636231105340898052
81,636231105341003139
81,636231105341108196
81,636231105341213454
81,636231105341318528
81,636231105341423444
81,636231105341528492
81,636231105341633579
81,636231105341738829
81,636231105341843723
81,636231105341948977
81,636231105342054051
81,636231105342158941
81,636231105342264020
81,636231105342369094
81,636231105342479167
81,636231105342584258
81,636231105342689311
81,636231105342799581
81,636231105342904651
81,636231105343014729
81,636231105343119632
81,636231105343224872
81,636231105343329951
81,636231105343434837
81,636231105343539911
81,636231105343645173
81,636231105343750076
81,636231105343855137
81,636231105343965395
81,636231105344070285
81,636231105344175367
81,636231105344280450
81,636231105344385695
81,636231105344490585
81,636231105344595660
81,636231105344700729
81,636231105344805829
81,636231105344910878
81,636231105345016140
80,636231105345121210
80,636231105345226121
80,636231105345331174
80,636231105345436440
80,636231105345541348
80,636231105345646589
80,636231105345751658
80,636231105345861736
80,636231105345966635
80,636231105346071705
80,636231105346176774
80,636231105346282028
80,636231105346391922
80,636231105346497193
80,636231105346602087
80,636231105346707165
80,636231105346812248
80,636231105346917480
80,636231105347022593
80,636231105347127445
80,636231105347232536
80,636231105347337593
80,636231105347442671
80,636231105347547758
80,636231105347652841
80,636231105347758073
80,636231105347862980
80,636231105347968221
80,636231105348073107
80,636231105348178198
80,636231105348283255
80,636231105348388351
80,636231105348493592
80,636231105348598662
80,636231105348703740
80,636231105348808639
80,636231105348913704
80,636231105349018778
80,636231105349123852
80,636231105349234131
80,636231105349344192
80,636231105349449266
80,636231105349559356
80,636231105349664417
80,636231105349769487
80,636231105349879398
80,636231105349984472
80,636231105350089529
80,636231105350194625
80,636231105350299682
80,636231105350404935
80,636231105350510018
80,636231105350614917
80,636231105350719987
80,636231105350825112
80,636231105350930122
80,636231105351035200
80,636231105351140279
80,636231105351245532
80,636231105351350440
80,636231105351455497
80,636231105351565754
80,636231105351675652
80,636231105351780743
80,636231105351890808
80,636231105351995873
80,636231105352100952
80,636231105352206026
80,636231105352311292
80,636231105352416170
80,636231105352521244
80,636231105352626519
80,636231105352731576
80,636231105352836475
80,636231105352941544
80,636231105353046614
80,636231105353151688
80,636231105353256788
80,636231105353367050
80,636231105353471918
80,636231105353582009
80,636231105353687258
80,636231105353797161
80,636231105353902410
80,636231105354007480
80,636231105354112387
80,636231105354217637
80,636231105354327701
80,636231105354432609
80,636231105354537678
80,636231105354642924
80,636231105354747831
80,636231105354852888
80,636231105354958150
80,636231105355063053
80,636231105355173131
80,636231105355278218
80,636231105355383454
80,636231105355488357
80,636231105355598431
80,636231105355703492
80,636231105355808750
80,636231105355913820
80,636231105356018736
80,636231105356123968
80,636231105356229046
80,636231105356333945
80,636231105356444194
80,636231105356549268
80,636231105356654175
80,636231105356759425
80,636231105356864494
80,636231105356969410
80,636231105357074463
80,636231105357179533
80,636231105357284795
80,636231105357389869
80,636231105357494956
80,636231105357600013
80,636231105357705087
80,636231105357809999
80,636231105357915047
80,636231105358020130
80,636231105358125200
80,636231105358225454
80,636231105358330340
80,636231105358440422
80,636231105358545684
80,636231105358650591
80,636231105358755828
80,636231105358860898
80,636231105358965839
80,636231105359070871
80,636231105359175940
80,636231105359281027
80,636231105359391088
80,636231105359496179
80,636231105359606424
80,636231105359711498
80,636231105359821580
80,636231105359926483
80,636231105360031732
80,636231105360136614
80,636231105360241880
80,636231105360346954
80,636231105360451844
80,636231105360556910
80,636231105360661988
80,636231105360767246
80,636231105360872320
80,636231105360977211
80,636231105361082469
80,636231105361187363
80,636231105361292612
79,636231105361397524
79,636231105361502577
79,636231105361607839
79,636231105361712947
79,636231105361823029
79,636231105361928086
79,636231105362038168
79,636231105362143045
79,636231105362248299
79,636231105362353365
79,636231105362458272
79,636231105362563329
79,636231105362668416
79,636231105362773499
79,636231105362878551
79,636231105362983634
79,636231105363088704
79,636231105363193791
79,636231105363303855
79,636231105363404106
79,636231105363509004
79,636231105363614254
79,636231105363719354
79,636231105363824423
79,636231105363929305
79,636231105364034550
79,636231105364139620
79,636231105364244519
79,636231105364349768
79,636231105364454684
79,636231105364559737
79,636231105364664832
79,636231105364770065
79,636231105364874959
79,636231105364980037
79,636231105365085120
79,636231105365190365
79,636231105365300443
79,636231105365405337
79,636231105365505583
79,636231105365610657
79,636231105365715552
79,636231105365815840
79,636231105365920718
79,636231105366025976
79,636231105366130862
79,636231105366236124
79,636231105366340993
79,636231105366446067
79,636231105366551321
79,636231105366656215
79,636231105366761285
79,636231105366866367
79,636231105366971437
79,636231105367076511
79,636231105367181598
79,636231105367286660
79,636231105367396737
79,636231105367501816
79,636231105367606885
79,636231105367711968
79,636231105367817042
79,636231105367922116
79,636231105368027186
79,636231105368137259
79,636231105368242338
79,636231105368342626
79,636231105368447683
79,636231105368552565
79,636231105368657631
79,636231105368762696
79,636231105368867796
79,636231105368972853
79,636231105369077935
79,636231105369183185
79,636231105369288088
79,636231105369393141
79,636231105369498236
79,636231105369608485
79,636231105369713375
79,636231105369818445
79,636231105369918695
78,636231105370023790
78,636231105370128676
78,636231105370233738
78,636231105370338807
78,636231105370444065
78,636231105370549148
78,636231105370654214
78,636231105370759121
78,636231105370864178
78,636231105370969444
78,636231105371074347
78,636231105371179409
78,636231105371284491
78,636231105371389553
78,636231105371499814
78,636231105371604713
78,636231105371714786
78,636231105371819882
78,636231105371920111
78,636231105372025223
78,636231105372130297
78,636231105372235371
78,636231105372340437
78,636231105372445310
78,636231105372550589
78,636231105372660658
78,636231105372765544
78,636231105372870777
78,636231105372975671
78,636231105373075926
78,636231105373180820
78,636231105373286069
78,636231105373390985
78,636231105373496222
78,636231105373601112
78,636231105373711203
78,636231105373816281
78,636231105373921517
78,636231105374026421
78,636231105374131666
78,636231105374236740
78,636231105374341822
78,636231105374446725
78,636231105374551983
78,636231105374656852
78,636231105374762114
78,636231105374867189
78,636231105374977095
78,636231105375082182
78,636231105375187419
78,636231105375292317
78,636231105375397379
78,636231105375502632
78,636231105375607527
78,636231105375712605
78,636231105375817679
78,636231105375917929
78,636231105376022845
78,636231105376128086
78,636231105376232964
78,636231105376338230
78,636231105376443129
78,636231105376548395
78,636231105376658281
78,636231105376763342
78,636231105376868600
78,636231105376973507
78,636231105377078577
78,636231105377183818
78,636231105377288909
78,636231105377393975
78,636231105377498860
78,636231105377604118
78,636231105377709193
78,636231105377814091
78,636231105377914337
78,636231105378019232
78,636231105378124302
78,636231105378229376
76,636231105378334471
76,636231105378439703
76,636231105378544782
76,636231105378654688
76,636231105378759767
76,636231105378865008
76,636231105378969893
76,636231105379074968
76,636231105379180042
76,636231105379285116
76,636231105379390224
76,636231105379495290
76,636231105379600338
76,636231105379705600
76,636231105379810490
76,636231105379915586
76,636231105380020827
76,636231105380125713
76,636231105380230795
76,636231105380335861
76,636231105380440931
76,636231105380546013
76,636231105380651079
76,636231105380756153
76,636231105380866415
76,636231105380971489
76,636231105381081387
76,636231105381186640
76,636231105381296534
76,636231105381401630
76,636231105381506704
76,636231105381611778
76,636231105381717019
76,636231105381822097
76,636231105381932170
76,636231105382037073
76,636231105382142318
76,636231105382247222
76,636231105382352300
76,636231105382457361
76,636231105382562452
76,636231105382667509
76,636231105382772601
76,636231105382877653
76,636231105382982727
76,636231105383083003
76,636231105383187868
76,636231105383293130
76,636231105383398033
76,636231105383503111
76,636231105383608164
76,636231105383713242
76,636231105383818312
76,636231105383923575
76,636231105384028482
76,636231105384133556
76,636231105384238792
76,636231105384343691
76,636231105384448765
76,636231105384553831
76,636231105384658909
76,636231105384768987
76,636231105384874245
76,636231105384984134
76,636231105385089225
76,636231105385194471
76,636231105385299378
76,636231105385404439
76,636231105385509513
76,636231105385614600
76,636231105385724661
76,636231105385829743
76,636231105385934805
76,636231105386039917
76,636231105386145150
76,636231105386250211
76,636231105386360126
76,636231105386465191
76,636231105386565433
76,636231105386675331
75,636231105386780405
75,636231105386885479
75,636231105386990763
75,636231105387095833
75,636231105387200706
75,636231105387305780
75,636231105387411029
75,636231105387515924
75,636231105387620994
75,636231105387726252
75,636231105387836145
75,636231105387941232
75,636231105388046482
75,636231105388151368
75,636231105388256634
75,636231105388361713
75,636231105388466594
75,636231105388571664
75,636231105388676747
75,636231105388782000
75,636231105388887079
75,636231105388992144
75,636231105389097223
75,636231105389207300
75,636231105389312379
75,636231105389417444
75,636231105389522527
75,636231105389627408
75,636231105389732491
75,636231105389837758
75,636231105389942819
75,636231105390047718
75,636231105390147968
75,636231105390253042
75,636231105390358112
75,636231105390463002
75,636231105390568076
75,636231105390673154
75,636231105390783228
75,636231105390888315
75,636231105390993590
75,636231105391098668
75,636231105391203704
75,636231105391308791
75,636231105391413856
75,636231105391518763
75,636231105391623833
75,636231105391729078
75,636231105391833969
75,636231105391939043
75,636231105392044130
75,636231105392149375
75,636231105392254449
75,636231105392359339
75,636231105392464409
75,636231105392569509
75,636231105392674566
75,636231105392784639
75,636231105392889713
75,636231105392994808
75,636231105393100049
75,636231105393204957
75,636231105393310014
75,636231105393415272
75,636231105393520170
75,636231105393625232
75,636231105393730520
75,636231105393835564
75,636231105393940458
75,636231105394045545
75,636231105394150623
75,636231105394255693
75,636231105394360772
75,636231105394465820
75,636231105394570894
75,636231105394675973
75,636231105394781235
75,636231105394886129
75,636231105394991195
75,636231105395101272
75,636231105395206364
75,636231105395311643
75,636231105395416713
75,636231105395526581
75,636231105395636671
75,636231105395741724
75,636231105395846811
75,636231105395951894
75,636231105396057134
75,636231105396162042
75,636231105396267090
75,636231105396372186
75,636231105396477247
75,636231105396582501
75,636231105396687404
75,636231105396792465
75,636231105396897719
75,636231105397002626
75,636231105397107692
75,636231105397212945
75,636231105397318049
75,636231105397422944
75,636231105397532983
75,636231105397638249
75,636231105397743319
75,636231105397848205
75,636231105397953305
75,636231105398058541
75,636231105398163620
75,636231105398268685
75,636231105398378583
75,636231105398483670
75,636231105398588732
75,636231105398693801
75,636231105398803896
75,636231105398904138
75,636231105399009045
75,636231105399114106
75,636231105399219369
75,636231105399329254
75,636231105399434341
75,636231105399539586
75,636231105399644656
75,636231105399749734
75,636231105399854637
75,636231105399959886
75,636231105400064789
75,636231105400169846
75,636231105400274921
75,636231105400380174
75,636231105400485073
75,636231105400590168
75,636231105400695221
75,636231105400800304
75,636231105400905365
75,636231105401010456
75,636231105401115522
75,636231105401220771
75,636231105401325850
75,636231105401430919
75,636231105401535814
75,636231105401641068
75,636231105401746142
75,636231105401851028
75,636231105401956106
75,636231105402061368
75,636231105402166271
75,636231105402271333
75,636231105402376402
75,636231105402481472
75,636231105402586568
75,636231105402691809
75,636231105402796712
75,636231105402901773
75,636231105403007035
74,636231105403112105
74,636231105403217183
74,636231105403322078
74,636231105403427323
74,636231105403532410
74,636231105403637291
74,636231105403742366
74,636231105403847649
74,636231105403952728
74,636231105404057772
74,636231105404162846
74,636231105404272778
74,636231105404377814
74,636231105404478072
74,636231105404583151
74,636231105404688037
74,636231105404793124
74,636231105404898369
74,636231105405003272
74,636231105405108508
74,636231105405213587
74,636231105405318494
74,636231105405423564
74,636231105405528629
74,636231105405633699
74,636231105405743956
74,636231105405849056
74,636231105405954130
74,636231105406058999
74,636231105406159254
74,636231105406264161
74,636231105406369231
74,636231105406474309
74,636231105406579366
74,636231105406684628
74,636231105406794697
74,636231105406899780
74,636231105407004845
74,636231105407109928
74,636231105407214998
74,636231105407319901
74,636231105407424958
74,636231105407530053
74,636231105407630291
74,636231105407735194
74,636231105407840276
74,636231105407945522
74,636231105408050425
74,636231105408160660
74,636231105408265576
74,636231105408370625
74,636231105408480707
74,636231105408585965
74,636231105408696042
74,636231105408801112
74,636231105408906190
74,636231105409011076
74,636231105409116176
74,636231105409221413
74,636231105409331306
74,636231105409436398
74,636231105409541459
74,636231105409641739
74,636231105409746612
74,636231105409851857
74,636231105409956940
74,636231105410067018
74,636231105410171895
74,636231105410276990
74,636231105410382236
74,636231105410487143
74,636231105410592379
74,636231105410697270
74,636231105410802532
74,636231105410907439
74,636231105411017491
73,636231105411122591
73,636231105411227827
73,636231105411332731
73,636231105411437809
73,636231105411543050
73,636231105411647953
73,636231105411753014
73,636231105411858088
73,636231105411968170
73,636231105412073244
73,636231105412178323
73,636231105412283593
73,636231105412388475
73,636231105412493532
73,636231105412598794
73,636231105412703864
73,636231105412808947
73,636231105412914021
73,636231105413019095
73,636231105413124160
73,636231105413229055
73,636231105413334142
73,636231105413439391
73,636231105413544452
73,636231105413649368
73,636231105413754618
73,636231105413859512
73,636231105413964753
73,636231105414069648
73,636231105414174735
73,636231105414279804
73,636231105414390053
73,636231105414499968
73,636231105414605042
73,636231105414710121
73,636231105414815366
73,636231105414920243
73,636231105415025321
73,636231105415130408
73,636231105415235474
73,636231105415340557
73,636231105415445618
73,636231105415550705
73,636231105415655770
73,636231105415760840
73,636231105415865940
73,636231105415975992
73,636231105416076246
73,636231105416186153
73,636231105416291398
73,636231105416396305
73,636231105416501362
73,636231105416606625
73,636231105416711528
73,636231105416816768
73,636231105416921843
73,636231105417026912
73,636231105417131803
73,636231105417237065
73,636231105417346959
73,636231105417447213
73,636231105417552099
73,636231105417657199
73,636231105417767255
73,636231105417872338
73,636231105417977407
73,636231105418082477
73,636231105418187564
73,636231105418292621
73,636231105418397712
73,636231105418502774
73,636231105418608036
73,636231105418713106
73,636231105418818180
73,636231105418923087
73,636231105419028165
73,636231105419133398
73,636231105419238292
73,636231105419343546
73,636231105419448628
73,636231105419553698
73,636231105419658772
73,636231105419763671
73,636231105419868737
73,636231105419973815
73,636231105420078940
73,636231105420183959
73,636231105420289050
73,636231105420399123
73,636231105420509372
73,636231105420614442
73,636231105420719354
73,636231105420824594
73,636231105420929485
73,636231105421034559
73,636231105421144653
73,636231105421249728
73,636231105421354785
73,636231105421459880
73,636231105421565117
73,636231105421670152
73,636231105421775085
73,636231105421880159
73,636231105421985242
73,636231105422090320
73,636231105422195390
73,636231105422300447
73,636231105422405547
73,636231105422510612
73,636231105422615691
73,636231105422720936
73,636231105422825826
73,636231105422931080
73,636231105423035970
73,636231105423141070
73,636231105423251306
73,636231105423356388
73,636231105423461454
73,636231105423566340
73,636231105423676422
73,636231105423781684
73,636231105423886591
73,636231105423991828
73,636231105424096722
73,636231105424196972
73,636231105424301867
73,636231105424406941
73,636231105424512190
73,636231105424617273
73,636231105424722159
73,636231105424827254
73,636231105424932491
73,636231105425037377
73,636231105425147647
73,636231105425252721
73,636231105425357620
74,636231105425462874
74,636231105425567777
74,636231105425672834
74,636231105425777903
74,636231105425883170
74,636231105425993235
74,636231105426098133
74,636231105426203220
74,636231105426313285
74,636231105426418547
74,636231105426523609
74,636231105426628507
74,636231105426733577
74,636231105426838840
74,636231105426943909
74,636231105427048988
74,636231105427154058
74,636231105427258969
74,636231105427364022
74,636231105427469117
74,636231105427574187
74,636231105427679248
74,636231105427784318
74,636231105427889405
74,636231105427999654
74,636231105428104724
74,636231105428209618
74,636231105428319704
74,636231105428424770
74,636231105428529861
74,636231105428639921
74,636231105428744991
74,636231105428850279
74,636231105428955370
74,636231105429060248
74,636231105429165476
74,636231105429270554
74,636231105429380632
74,636231105429490521
74,636231105429595608
74,636231105429700687
74,636231105429805927
74,636231105429910997
74,636231105430015905
74,636231105430121145
74,636231105430226053
74,636231105430331123
74,636231105430441376
74,636231105430546283
74,636231105430656339
74,636231105430761430
74,636231105430866492
74,636231105430971566
74,636231105431076657
74,636231105431181898
74,636231105431286788
74,636231105431396887
74,636231105431502128
74,636231105431607202
74,636231105431712272
74,636231105431817346
74,636231105431922424
74,636231105432027438
76,636231105432132388
76,636231105432242646
76,636231105432352544
76,636231105432457631
76,636231105432562700
76,636231105432667779
76,636231105432777844
76,636231105432882930
76,636231105432988197
76,636231105433093079
76,636231105433198148
76,636231105433308209
76,636231105433413283
76,636231105433518379
76,636231105433623619
76,636231105433728505
76,636231105433838583
76,636231105433943661
76,636231105434048735
76,636231105434153814
76,636231105434258892
76,636231105434363962
76,636231105434474040
76,636231105434579122
76,636231105434684179
76,636231105434789446
76,636231105434894332
76,636231105434999406
76,636231105435109603
76,636231105435214746
76,636231105435319815
76,636231105435424706
76,636231105435529793
76,636231105435640041
76,636231105435750123
76,636231105435855193
76,636231105435960263
76,636231105436065345
76,636231105436170415
76,636231105436275327
76,636231105436380559
76,636231105436495649
76,636231105436605547
76,636231105436710617
76,636231105436820711
76,636231105436930768
76,636231105437035859
76,636231105437141100
76,636231105437246178
76,636231105437351248
76,636231105437456155
76,636231105437561396
76,636231105437671474
76,636231105437781551
76,636231105437886441
76,636231105437996707
76,636231105438101606
76,636231105438211688
76,636231105438316933
76,636231105438421999
76,636231105438527077
76,636231105438631971
76,636231105438737037
79,636231105438842120
79,636231105438947189
79,636231105439052276
79,636231105439157342
79,636231105439262416
79,636231105439367499
79,636231105439472560
79,636231105439582659
79,636231105439687900
79,636231105439792786
79,636231105439897873
79,636231105440003135
79,636231105440108192
79,636231105440213180
79,636231105440318169
79,636231105440423252
79,636231105440528488
79,636231105440633400
79,636231105440738470
79,636231105440843531
79,636231105440943785
79,636231105441048676
79,636231105441153754
79,636231105441259003
79,636231105441364099
79,636231105441468972
79,636231105441569243
79,636231105441674117
79,636231105441784203
79,636231105441889268
79,636231105441999525
79,636231105442104416
79,636231105442209674
79,636231105442314743
79,636231105442419634
79,636231105442524904
79,636231105442629803
79,636231105442734860
79,636231105442840118
79,636231105442945030
79,636231105443050083
79,636231105443155178
79,636231105443260415
79,636231105443365510
79,636231105443470379
79,636231105443575470
79,636231105443680711
79,636231105443785627
79,636231105443890863
79,636231105443995929
79,636231105444100819
79,636231105444206077
79,636231105444310972
79,636231105444416063
79,636231105444521120
79,636231105444626194
79,636231105444731289
79,636231105444836530
79,636231105444941604
81,636231105445046499
81,636231105445151573
81,636231105445256651
81,636231105445361713
81,636231105445466791
81,636231105445571874
81,636231105445676952
81,636231105445782026
81,636231105445892091
81,636231105445997178
81,636231105446102252
81,636231105446207326
81,636231105446312400
81,636231105446417474
81,636231105446522531
81,636231105446627605
81,636231105446732683
81,636231105446837770
81,636231105446947848
81,636231105447057909
81,636231105447163004
81,636231105447268065
81,636231105447378151
81,636231105447483427
81,636231105447588496
81,636231105447693369
81,636231105447798426
81,636231105447903505
81,636231105448008600
81,636231105448113841
81,636231105448218911
81,636231105448323823
81,636231105448428892
81,636231105448534133
81,636231105448644211
81,636231105448749114
81,636231105448854175
81,636231105448959249
81,636231105449064323
81,636231105449169415
81,636231105449274493
81,636231105449379546
81,636231105449484641
81,636231105449594885
81,636231105449699788
81,636231105449804858
81,636231105449910099
81,636231105450015178
81,636231105450120085
81,636231105450225326
81,636231105450335237
81,636231105450440473
81,636231105450545556
81,636231105450650630
81,636231105450755520
81,636231105450860782
81,636231105450965844
81,636231105451070931
81,636231105451175812
81,636231105451280891
81,636231105451381141
84,636231105451486052
84,636231105451591289
84,636231105451696192
84,636231105451801309
84,636231105451906515
84,636231105452016405
84,636231105452121663
84,636231105452226737
84,636231105452336635
84,636231105452441893
84,636231105452546963
84,636231105452652045
84,636231105452756927
84,636231105452862185
84,636231105452967088
84,636231105453072333
84,636231105453177223
84,636231105453282310
84,636231105453387551
84,636231105453492634
84,636231105453597704
84,636231105453702602
84,636231105453807677
84,636231105453912742
84,636231105454018030
84,636231105454122950
84,636231105454227990
84,636231105454338059
84,636231105454443133
84,636231105454548203
84,636231105454653448
84,636231105454758343
84,636231105454863596
84,636231105454968487
84,636231105455078748
84,636231105455183826
84,636231105455288712
84,636231105455393804
84,636231105455498865
84,636231105455603939
84,636231105455709013
84,636231105455814100
84,636231105455919165
84,636231105456024415
84,636231105456129326
84,636231105456234379
84,636231105456339633
84,636231105456444553
84,636231105456554605
84,636231105456659871
84,636231105456764757
84,636231105456870011
84,636231105456974923
84,636231105457079975
84,636231105457185229
84,636231105457290124
84,636231105457395382
84,636231105457500456
84,636231105457605359
84,636231105457710420
84,636231105457815494
84,636231105457920752
86,636231105458025826
86,636231105458135724
86,636231105458245981
86,636231105458350884
86,636231105458456130
86,636231105458561212
86,636231105458666278
86,636231105458771189
86,636231105458876246
86,636231105458981325
86,636231105459086574
86,636231105459191648
86,636231105459296538
86,636231105459401625
86,636231105459506870
86,636231105459611829
86,636231105459716835
86,636231105459821909
86,636231105459922172
86,636231105460027246
86,636231105460132128
86,636231105460232420
86,636231105460337465
86,636231105460442355
86,636231105460547613
86,636231105460652516
86,636231105460757590
86,636231105460862839
86,636231105460967734
86,636231105461072795
86,636231105461177865
86,636231105461282952
86,636231105461388013
86,636231105461493091
86,636231105461598166
86,636231105461703424
86,636231105461808335
86,636231105461913585
86,636231105462018646
86,636231105462123711
86,636231105462228606
86,636231105462333680
86,636231105462438754
86,636231105462544012
86,636231105462654094
86,636231105462758997
86,636231105462864050
86,636231105462969145
86,636231105463079201
86,636231105463189463
86,636231105463294353
86,636231105463399615
86,636231105463504702
86,636231105463609584
86,636231105463714838
86,636231105463819753
86,636231105463924802
86,636231105464029893
86,636231105464134967
86,636231105464235204
86,636231105464340112
86,636231105464445186
86,636231105464550427
86,636231105464655317
86,636231105464765399
86,636231105464870665
86,636231105464980568
86,636231105465090624
87,636231105465200890
87,636231105465305776
87,636231105465410854
87,636231105465516103
87,636231105465621019
87,636231105465726072
87,636231105465831326
87,636231105465936224
87,636231105466041478
87,636231105466146377
87,636231105466251631
87,636231105466356705
87,636231105466461612
87,636231105466571673
87,636231105466676742
87,636231105466781816
87,636231105466887079
87,636231105466991977
87,636231105467097223
87,636231105467202297
87,636231105467307183
87,636231105467412441
87,636231105467517356
87,636231105467622426
87,636231105467727488
87,636231105467832741
87,636231105467937824
87,636231105468042894
87,636231105468147792
87,636231105468252875
87,636231105468357949
87,636231105468462998
87,636231105468568264
87,636231105468673193
87,636231105468778228
87,636231105468883482
87,636231105468993560
87,636231105469098630
87,636231105469203545
87,636231105469308620
87,636231105469413694
87,636231105469518943
87,636231105469624013
87,636231105469729078
87,636231105469833964
87,636231105469939051
87,636231105470039297
87,636231105470144187
87,636231105470249261
87,636231105470354340
87,636231105470459427
87,636231105470564505
87,636231105470669554
87,636231105470774632
87,636231105470879706
87,636231105470984801
87,636231105471089858
87,636231105471195138
87,636231105471305194
87,636231105471410080
87,636231105471520179
87,636231105471620412
87,636231105471725336
87,636231105471830564
87,636231105471935634
87,636231105472040524
87,636231105472145616
87,636231105472250677
87,636231105472355751
87,636231105472460847
87,636231105472566083
87,636231105472670969
87,636231105472781047
87,636231105472886309
87,636231105472996412
87,636231105473106503
87,636231105473211543
87,636231105473316608
87,636231105473421682
87,636231105473526577
87,636231105473631835
87,636231105473736900
87,636231105473841983
87,636231105473946869
87,636231105474051960
87,636231105474157201
87,636231105474262275
87,636231105474367349
87,636231105474472243
87,636231105474577326
87,636231105474682571
87,636231105474787654
87,636231105474892557
87,636231105475002609
87,636231105475107700
87,636231105475212979
87,636231105475317857
87,636231105475422914
87,636231105475528001
87,636231105475633058
87,636231105475738316
87,636231105475843210
87,636231105475948464
87,636231105476053542
87,636231105476163440
87,636231105476263682
87,636231105476368764
87,636231105476473668
87,636231105476578729
87,636231105476683807
87,636231105476788877
87,636231105476898967
87,636231105477004024
87,636231105477109098
87,636231105477214190
87,636231105477319431
87,636231105477424334
87,636231105477529412
87,636231105477639472
87,636231105477744542
87,636231105477849800
87,636231105477954703
87,636231105478054949
87,636231105478160023
87,636231105478265097
87,636231105478370171
87,636231105478475079
87,636231105478580136
87,636231105478690226
87,636231105478795292
87,636231105478900366
87,636231105479005620
87,636231105479110518
87,636231105479220596
87,636231105479325666
87,636231105479430915
87,636231105479536002
87,636231105479641076
87,636231105479745975
87,636231105479851216
87,636231105479961122
87,636231105480066196
87,636231105480171271
87,636231105480276336
87,636231105480381406
87,636231105480486497
87,636231105480591738
87,636231105480696654
87,636231105480801724
87,636231105480906781
87,636231105481012030
87,636231105481116925
87,636231105481221999
87,636231105481332299
86,636231105481437356
86,636231105481542451
86,636231105481647512
86,636231105481752595
86,636231105481862664
86,636231105481967546
86,636231105482067783
86,636231105482172669
86,636231105482277752
86,636231105482382821
86,636231105482487913
86,636231105482593149
86,636231105482698219
86,636231105482808126
86,636231105482918383
86,636231105483023277
86,636231105483123523
86,636231105483228597
86,636231105483333710
86,636231105483443749
86,636231105483548827
86,636231105483653906
86,636231105483758971
86,636231105483864045
86,636231105483974123
86,636231105484079013
86,636231105484184104
86,636231105484289345
86,636231105484394235
86,636231105484504330
86,636231105484609571
86,636231105484714466
86,636231105484819719
86,636231105484924609
86,636231105485029692
86,636231105485134758
86,636231105485235012
86,636231105485340116
86,636231105485445199
86,636231105485555268
86,636231105485660149
86,636231105485765382
86,636231105485870276
86,636231105485975367
86,636231105486085616
86,636231105486190502
86,636231105486295760
86,636231105486405654
86,636231105486510732
86,636231105486620994
86,636231105486730892
86,636231105486835974
86,636231105486941031
86,636231105487046105
86,636231105487151363
86,636231105487256258
86,636231105487361328
86,636231105487466462
86,636231105487576484
86,636231105487681772
86,636231105487786833
86,636231105487896718
86,636231105488001963
86,636231105488107033
86,636231105488211932
86,636231105488317001
86,636231105488422264
86,636231105488527158
86,636231105488632412
86,636231105488737490
86,636231105488842564
86,636231105488947626
86,636231105489052704
86,636231105489157594
86,636231105489262690
86,636231105489372767
86,636231105489477820
86,636231105489583087
86,636231105489687990
84,636231105489793059
84,636231105489903128
84,636231105490003374
84,636231105490108457
84,636231105490213356
84,636231105490318597
84,636231105490423666
84,636231105490529083
84,636231105490629867
84,636231105490733667
84,636231105490834832
84,636231105490936147
84,636231105491036941
84,636231105491138072
84,636231105491239075
84,636231105491343358
84,636231105491444643
84,636231105491545398
84,636231105491645849
84,636231105491749482
84,636231105491850664
84,636231105491953502
84,636231105492054684
84,636231105492156170
84,636231105492263832
84,636231105492365202
84,636231105492465983
84,636231105492570223
84,636231105492673582
84,636231105492774841
84,636231105492876037
84,636231105492976479
84,636231105493076708
84,636231105493180931
84,636231105493284709
84,636231105493389347
84,636231105493490761
84,636231105493595411
84,636231105493702932
84,636231105493807386
84,636231105493911566
84,636231105494015699
84,636231105494117031
84,636231105494218295
84,636231105494319794
84,636231105494422319
84,636231105494526654
84,636231105494628349
84,636231105494733184
84,636231105494838660
84,636231105494944512
84,636231105495045682
84,636231105495146911
84,636231105495251250
84,636231105495352403
84,636231105495456643
84,636231105495561101
84,636231105495661817
84,636231105495762717
84,636231105495866444
84,636231105495966784
84,636231105496069703
84,636231105496171134
84,636231105496271978
84,636231105496372780
84,636231105496477713
84,636231105496582800
84,636231105496692869
84,636231105496798093
84,636231105496908012
84,636231105497013095
84,636231105497115021
84,636231105497219942
84,636231105497321158
84,636231105497426472
84,636231105497528086
84,636231105497633143
83,636231105497743229
83,636231105497853444
83,636231105497958574
83,636231105498059730
83,636231105498163000
83,636231105498263254
83,636231105498368140
83,636231105498473407
83,636231105498578314
83,636231105498683379
83,636231105498788458
83,636231105498893511
83,636231105498993761
83,636231105499098843
83,636231105499203746
83,636231105499308812
83,636231105499413882
83,636231105499518960
83,636231105499624034
83,636231105499729100
83,636231105499834187
83,636231105499939252
83,636231105500044339
83,636231105500149405
83,636231105500254483
83,636231105500359544
83,636231105500464623
83,636231105500569705
83,636231105500674779
83,636231105500780025
83,636231105500885099
83,636231105500990173
83,636231105501095255
83,636231105501200137
83,636231105501310394
83,636231105501415468
83,636231105501520359
83,636231105501630449
83,636231105501735694
83,636231105501840601
83,636231105501945847
83,636231105502050741
83,636231105502155815
83,636231105502261069
83,636231105502365976
83,636231105502471247
83,636231105502576120
83,636231105502681194
83,636231105502786251
83,636231105502896521
83,636231105503001407
83,636231105503106494
83,636231105503211564
83,636231105503316813
83,636231105503421887
83,636231105503526786
83,636231105503631865
83,636231105503736939
83,636231105503842000
83,636231105503947262
83,636231105504057241
83,636231105504162410
83,636231105504267479
83,636231105504372382
83,636231105504477448
83,636231105504582535
83,636231105504687776
83,636231105504792854
83,636231105504897740
83,636231105505002814
83,636231105505108081
83,636231105505213146
83,636231105505318225
83,636231105505423303
83,636231105505528219
83,636231105505633451
83,636231105505738517
83,636231105505843411
81,636231105505948485
81,636231105506053739
81,636231105506158822
81,636231105506263708
81,636231105506368782
81,636231105506473851
81,636231105506578925
81,636231105506684209
81,636231105506789283
81,636231105506899168
81,636231105507004414
81,636231105507109483
81,636231105507214557
81,636231105507319632
81,636231105507424535
81,636231105507524776
81,636231105507629850
81,636231105507734753
81,636231105507839819
81,636231105507945077
81,636231105508050151
81,636231105508155054
81,636231105508260295
81,636231105508365189
81,636231105508470268
81,636231105508575350
81,636231105508680630
81,636231105508785665
81,636231105508890568
81,636231105508995630
81,636231105509100708
81,636231105509205778
81,636231105509311036
81,636231105509416114
81,636231105509521188
81,636231105509626091
81,636231105509731165
81,636231105509836239
81,636231105509941489
81,636231105510046383
81,636231105510151633
81,636231105510256523
81,636231105510361623
81,636231105510466671
81,636231105510571771
81,636231105510676824
81,636231105510782077
81,636231105510887168
81,636231105510992243
81,636231105511097124
81,636231105511202374
81,636231105511307277
81,636231105511412522
81,636231105511517596
81,636231105511622503
81,636231105511727556
81,636231105511832822
81,636231105511937892
81,636231105512047795
81,636231105512153040
81,636231105512258118
81,636231105512363008
81,636231105512468095
81,636231105512573161
81,636231105512678226
81,636231105512783317
81,636231105512888597
81,636231105512993449
81,636231105513098540
81,636231105513203614
81,636231105513308859
81,636231105513413762
81,636231105513518823
81,636231105513623910
81,636231105513728971
81,636231105513834058
78,636231105513939299
78,636231105514049206
78,636231105514154455
78,636231105514259354
78,636231105514364437
78,636231105514474510
78,636231105514579576
78,636231105514684829
78,636231105514789715
78,636231105514894806
78,636231105514999863
78,636231105515109945
78,636231105515215207
78,636231105515320085
78,636231105515430171
78,636231105515535254
78,636231105515640315
78,636231105515750581
78,636231105515855479
78,636231105515960554
78,636231105516065803
78,636231105516170706
78,636231105516275767
78,636231105516380841
78,636231105516485937
78,636231105516590998
78,636231105516696072
78,636231105516801317
78,636231105516906212
78,636231105517011294
78,636231105517116544
78,636231105517221614
78,636231105517326688
78,636231105517431766
78,636231105517536840
78,636231105517641914
78,636231105517746993
78,636231105517852058
78,636231105517957132
78,636231105518062027
78,636231105518167289
78,636231105518272188
78,636231105518377429
78,636231105518482507
78,636231105518587406
78,636231105518697475
78,636231105518802729
78,636231105518912644
78,636231105519017714
78,636231105519122779
78,636231105519228054
78,636231105519332919
78,636231105519437997
78,636231105519543071
78,636231105519648154
78,636231105519753279
78,636231105519858473
78,636231105519963551
78,636231105520068437
78,636231105520173529
78,636231105520278607
78,636231105520383843
78,636231105520488926
78,636231105520593821
78,636231105520704082
78,636231105520808964
78,636231105520914217
78,636231105521019121
78,636231105521124182
78,636231105521229273
78,636231105521334539
78,636231105521439618
78,636231105521549482
78,636231105521654744
78,636231105521759643
77,636231105521859893
77,636231105521964963
77,636231105522069853
77,636231105522175107
77,636231105522280065
77,636231105522385255
77,636231105522490337
77,636231105522595232
77,636231105522700310
77,636231105522805551
77,636231105522915449
77,636231105523020527
77,636231105523125597
77,636231105523225847
77,636231105523330947
77,636231105523436017
77,636231105523541091
77,636231105523646169
77,636231105523751038
77,636231105523856301
77,636231105523961370
77,636231105524066440
77,636231105524171514
77,636231105524276404
77,636231105524381483
77,636231105524481733
77,636231105524586623
77,636231105524691885
77,636231105524796955
77,636231105524901846
77,636231105525006924
77,636231105525111994
77,636231105525217072
77,636231105525322168
77,636231105525427417
77,636231105525532512
77,636231105525637587
77,636231105525742438
77,636231105525847722
77,636231105525952796
77,636231105526057678
77,636231105526167926
77,636231105526272996
77,636231105526377899
77,636231105526482965
77,636231105526588034
77,636231105526698296
77,636231105526803374
77,636231105526908256
77,636231105527013356
77,636231105527118430
77,636231105527223491
77,636231105527328561
77,636231105527433631
77,636231105527543935
77,636231105527649005
77,636231105527753857
77,636231105527859140
77,636231105527964005
77,636231105528069092
77,636231105528174170
77,636231105528279244
77,636231105528384485
77,636231105528489563
77,636231105528599453
77,636231105528704642
77,636231105528809789
77,636231105528914863
77,636231105529019942
77,636231105529124832
77,636231105529229906
77,636231105529330152
77,636231105529435226
75,636231105529540300
75,636231105529645194
75,636231105529750286
75,636231105529855544
75,636231105529960412
75,636231105530065504
75,636231105530175581
75,636231105530280638
75,636231105530390904
75,636231105530495974
75,636231105530600868
75,636231105530705934
75,636231105530811205
75,636231105530916086
75,636231105531021178
75,636231105531126252
75,636231105531231313
75,636231105531336400
75,636231105531441653
75,636231105531546544
75,636231105531656801
75,636231105531761700
75,636231105531866966
75,636231105531972049
75,636231105532076926
75,636231105532181996
75,636231105532292074
75,636231105532397143
75,636231105532502393
75,636231105532607467
75,636231105532717361
75,636231105532822614
75,636231105532927505
75,636231105533032583
75,636231105533137653
75,636231105533242748
75,636231105533347827
75,636231105533452879
75,636231105533562978
75,636231105533668211
75,636231105533773122
75,636231105533878363
75,636231105533983433
75,636231105534088332
75,636231105534193585
75,636231105534298488
75,636231105534403563
75,636231105534508641
75,636231105534613694
75,636231105534718952
75,636231105534823859
75,636231105534928933
75,636231105535034174
75,636231105535139064
75,636231105535244138
75,636231105535349217
75,636231105535454299
75,636231105535559378
75,636231105535664627
75,636231105535769530
75,636231105535874604
75,636231105535979871
75,636231105536084748
75,636231105536189809
75,636231105536294879
75,636231105536395155
75,636231105536505271
75,636231105536610114
75,636231105536715364
75,636231105536820442
75,636231105536925525
75,636231105537030556
75,636231105537135489
75,636231105537240550
75,636231105537345637
75,636231105537450711
75,636231105537555772
75,636231105537660855
75,636231105537765942
75,636231105537871059
75,636231105537981273
75,636231105538086335
75,636231105538196220
75,636231105538301311
75,636231105538406368
75,636231105538511442
75,636231105538616709
75,636231105538726607
75,636231105538831693
75,636231105538936772
75,636231105539041816
75,636231105539146890
75,636231105539251964
75,636231105539357047
75,636231105539462117
75,636231105539567186
75,636231105539672261
75,636231105539782342
75,636231105539887421
75,636231105539997494
75,636231105540102564
75,636231105540207647
75,636231105540312716
75,636231105540417791
75,636231105540522865
75,636231105540627939
75,636231105540733013
75,636231105540838087
75,636231105540943170
75,636231105541048231
75,636231105541153313
75,636231105541258392
75,636231105541363453
75,636231105541468531
75,636231105541573606
75,636231105541678688
75,636231105541783749
75,636231105541893836
75,636231105541998905
75,636231105542103988
75,636231105542209049
75,636231105542314123
75,636231105542419202
75,636231105542524276
75,636231105542629350
75,636231105542734428
75,636231105542839515
75,636231105542949580
75,636231105543059649
75,636231105543164907
75,636231105543269810
75,636231105543379896
75,636231105543484962
75,636231105543590027
75,636231105543695281
75,636231105543800355
75,636231105543905429
75,636231105544010512
75,636231105544115411
75,636231105544225480
75,636231105544330562
76,636231105544430804
76,636231105544535690
76,636231105544645977
76,636231105544751051
76,636231105544856130
76,636231105544960990
76,636231105545066090
76,636231105545171326
76,636231105545276216
76,636231105545381299
76,636231105545486377
76,636231105545591622
76,636231105545696508
76,636231105545801771
76,636231105545906845
76,636231105546011915
76,636231105546116809
76,636231105546221905
76,636231105546326962
76,636231105546432048
76,636231105546537285
76,636231105546642192
76,636231105546747442
76,636231105546852341
76,636231105546957415
76,636231105547062527
76,636231105547167559
76,636231105547272637
76,636231105547377711
76,636231105547482952
76,636231105547592858
76,636231105547693109
76,636231105547798007
76,636231105547903261
76,636231105548008160
76,636231105548113401
76,636231105548218470
76,636231105548323369
76,636231105548428435
76,636231105548528698
76,636231105548633601
76,636231105548738654
76,636231105548843954
76,636231105548948990
76,636231105549054060
76,636231105549159138
76,636231105549269211
76,636231105549374290
76,636231105549479197
76,636231105549584438
76,636231105549689324
76,636231105549799406
76,636231105549904488
76,636231105550009554
76,636231105550114628
76,636231105550219698
76,636231105550329780
76,636231105550430038
76,636231105550534933
76,636231105550645019
76,636231105550750256
76,636231105550855368
76,636231105550960233
76,636231105551065512
76,636231105551175372
77,636231105551280634
77,636231105551385704
77,636231105551490594
77,636231105551590848
77,636231105551695734
77,636231105551795997
77,636231105551906071
77,636231105552010974
77,636231105552116056
77,636231105552221297
77,636231105552326371
77,636231105552431441
77,636231105552536340
77,636231105552641589
77,636231105552746480
77,636231105552851746
77,636231105552956632
77,636231105553066727
77,636231105553171784
77,636231105553276871
77,636231105553382112
77,636231105553487096
77,636231105553592093
77,636231105553697334
77,636231105553802412
77,636231105553907482
77,636231105554012372
77,636231105554117459
77,636231105554222546
77,636231105554327607
77,636231105554432673
77,636231105554537935
77,636231105554642812
77,636231105554747904
77,636231105554852991
77,636231105554953228
77,636231105555058114
77,636231105555163397
77,636231105555268271
77,636231105555373349
77,636231105555478598
77,636231105555583664
77,636231105555688747
77,636231105555798636
77,636231105555903710
77,636231105556008968
77,636231105556113871
77,636231105556218928
77,636231105556324186
77,636231105556429076
77,636231105556534339
77,636231105556639229
77,636231105556744491
77,636231105556849394
77,636231105556954468
77,636231105557059525
77,636231105557164783
77,636231105557269853
77,636231105557379764
77,636231105557489828
77,636231105557595082
77,636231105557699972
77,636231105557805230
77,636231105557910121
77,636231105558015383
77,636231105558120286
77,636231105558225544
77,636231105558330434
77,636231105558435679
78,636231105558540749
78,636231105558645661
78,636231105558750713
78,636231105558855783
78,636231105558960866
78,636231105559061116
78,636231105559166015
78,636231105559271089
78,636231105559376154
78,636231105559481241
78,636231105559586320
78,636231105559691560
78,636231105559796635
78,636231105559901674
78,636231105560006603
78,636231105560111857
78,636231105560216935
78,636231105560322018
78,636231105560427079
78,636231105560531974
78,636231105560637056
78,636231105560747305
78,636231105560852204
78,636231105560957457
78,636231105561067364
78,636231105561172468
78,636231105561277499
78,636231105561382590
78,636231105561487665
78,636231105561592910
78,636231105561697796
78,636231105561803109
78,636231105561908017
78,636231105562013257
78,636231105562118336
78,636231105562223406
78,636231105562328488
78,636231105562433370
78,636231105562538628
78,636231105562643522
78,636231105562748592
78,636231105562853671
78,636231105562958817
78,636231105563064003
78,636231105563168889
78,636231105563273963
78,636231105563384062
78,636231105563489136
78,636231105563594372
78,636231105563699485
78,636231105563804559
78,636231105563909599
78,636231105564014489
78,636231105564119747
78,636231105564224821
78,636231105564329711
78,636231105564434965
78,636231105564540056
78,636231105564645117
78,636231105564755157
78,636231105564860107
78,636231105564965159
78,636231105565070242
78,636231105565175312
78,636231105565280561
78,636231105565385477
78,636231105565495542
78,636231105565600607
78,636231105565705883
78,636231105565810974
79,636231105565916031
79,636231105566020900
79,636231105566125982
79,636231105566231052
79,636231105566336310
79,636231105566441196
79,636231105566546291
79,636231105566651344
79,636231105566756448
79,636231105566861680
79,636231105566966579
79,636231105567071640
79,636231105567176727
79,636231105567281801
79,636231105567386871
79,636231105567492129
79,636231105567597199
79,636231105567702106
79,636231105567807381
79,636231105567912233
79,636231105568017495
79,636231105568122582
79,636231105568227477
79,636231105568332722
79,636231105568437788
79,636231105568542699
79,636231105568647765
79,636231105568752826
79,636231105568857917
79,636231105568962978
79,636231105569068232
79,636231105569173306
79,636231105569278385
79,636231105569383296
79,636231105569488370
79,636231105569598610
79,636231105569703616
79,636231105569808579
79,636231105569913657
79,636231105570018723
79,636231105570123981
79,636231105570229051
79,636231105570334125
79,636231105570439203
79,636231105570544106
79,636231105570649172
79,636231105570754438
79,636231105570859320
79,636231105570964569
79,636231105571069643
79,636231105571174551
79,636231105571279791
79,636231105571384682
79,636231105571489769
79,636231105571599842
79,636231105571704929
79,636231105571810016
79,636231105571915069
79,636231105572020344
79,636231105572125341
79,636231105572230282
79,636231105572335352
79,636231105572445614
79,636231105572550696
79,636231105572655595
79,636231105572760840
79,636231105572865918
79,636231105572970984
79,636231105573075896
79,636231105573180978
80,636231105573286031
80,636231105573391280
80,636231105573496359
80,636231105573606270
80,636231105573711331
80,636231105573816585
80,636231105573921470
80,636231105574026549
80,636231105574131661
80,636231105574236723
80,636231105574341767
80,636231105574446854
80,636231105574556936
80,636231105574662010
80,636231105574767251
80,636231105574872145
80,636231105574977236
80,636231105575082289
80,636231105575187547
80,636231105575292621
80,636231105575397520
80,636231105575502607
80,636231105575607664
80,636231105575712746
80,636231105575822820
80,636231105575927902
80,636231105576033169
80,636231105576138243
80,636231105576243287
80,636231105576348182
80,636231105576453273
80,636231105576558351
80,636231105576663417
80,636231105576768662
80,636231105576873569
80,636231105576978810
80,636231105577083884
80,636231105577188779
80,636231105577293866
80,636231105577399106
80,636231105577504180
80,636231105577609259
80,636231105577714166
80,636231105577814404
80,636231105577919294
80,636231105578024552
80,636231105578134668
80,636231105578239537
80,636231105578344589
80,636231105578454855
80,636231105578559925
80,636231105578670007
80,636231105578774910
80,636231105578879971
80,636231105578985225
80,636231105579090303
80,636231105579195373
80,636231105579300280
80,636231105579405521
80,636231105579510428
80,636231105579615485
80,636231105579720743
80,636231105579830821
80,636231105579935908
80,636231105580040969
80,636231105580145889
80,636231105580251122
80,636231105580356196
80,636231105580466107
80,636231105580576176
80,636231105580681258
80,636231105580786332
80,636231105580891569
80,636231105580996647
80,636231105581101546
80,636231105581206625
80,636231105581311690
80,636231105581416944
80,636231105581522014
80,636231105581627088
80,636231105581731995
80,636231105581837240
80,636231105581942147
80,636231105582047213
80,636231105582152283
80,636231105582257532
80,636231105582362422
80,636231105582467685
80,636231105582572754
80,636231105582677653
80,636231105582782903
80,636231105582892980
80,636231105582997870
80,636231105583098129
80,636231105583203028
80,636231105583308093
80,636231105583413356
80,636231105583518246
80,636231105583623333
80,636231105583728569
80,636231105583833464
80,636231105583938551
80,636231105584043792
80,636231105584148691
80,636231105584253765
80,636231105584354015
80,636231105584458905
80,636231105584563996
80,636231105584669049
80,636231105584774144
80,636231105584879214
80,636231105584984293
80,636231105585089538
80,636231105585194441
80,636231105585304497
80,636231105585409588
80,636231105585514649
80,636231105585619719
80,636231105585724793
80,636231105585830056
80,636231105585934954
80,636231105586040234
80,636231105586145098
80,636231105586250356
80,636231105586355251
80,636231105586460325
80,636231105586565570
80,636231105586790549
80,636231105586895623
80,636231105587000714
80,636231105587105767
80,636231105587210854
80,636231105587316099
80,636231105587421173
80,636231105587526081
80,636231105587631321
80,636231105587736212
80,636231105587841303
80,636231105587946364
80,636231105588051626
80,636231105588156529
81,636231105588266774
81,636231105588376847
81,636231105588481750
81,636231105588586816
81,636231105588696893
81,636231105588802181
81,636231105588907251
81,636231105589012128
81,636231105589117369
81,636231105589222443
81,636231105589327530
81,636231105589432600
81,636231105589537678
81,636231105589642577
81,636231105589747814
81,636231105589852721
81,636231105589957782
81,636231105590062869
81,636231105590168110
81,636231105590273150
81,636231105590378224
81,636231105590483170
81,636231105590588227
81,636231105590693297
81,636231105590798379
81,636231105590908637
81,636231105591018633
81,636231105591123604
81,636231105591228674
81,636231105591333932
81,636231105591439006
81,636231105591543909
81,636231105591648988
81,636231105591754233
81,636231105591859127
81,636231105591969385
81,636231105592074283
81,636231105592179533
81,636231105592284436
81,636231105592389677
81,636231105592499754
81,636231105592604662
81,636231105592709736
81,636231105592814814
81,636231105592925058
81,636231105593030154
81,636231105593135040
81,636231105593240298
81,636231105593345351
81,636231105593450433
81,636231105593560507
81,636231105593665585
81,636231105593770484
81,636231105593875558
81,636231105593980807
81,636231105594090881
81,636231105594195779
81,636231105594305848
81,636231105594410935
81,636231105594516176
81,636231105594621259
81,636231105594726140
81,636231105594831232
81,636231105594936289
81,636231105595041551
81,636231105595146668
81,636231105595251690
81,636231105595356585
81,636231105595461676
81,636231105595566917
81,636231105595671812
81,636231105595776886
81,636231105595881977
81,636231105595987030
81,636231105596092142
81,636231105596197182
81,636231105596302440
81,636231105596412334
81,636231105596517587
81,636231105596622670
81,636231105596732559
81,636231105596837634
81,636231105596942712
81,636231105597047807
81,636231105597152873
81,636231105597257951
81,636231105597363008
81,636231105597468288
81,636231105597573156
81,636231105597678239
81,636231105597783309
81,636231105597888374
81,636231105597998461
81,636231105598103539
81,636231105598208617
81,636231105598313854
81,636231105598418761
81,636231105598523831
81,636231105598629081
81,636231105598733975
81,636231105598839049
81,636231105598944149
81,636231105599049398
81,636231105599159292
81,636231105599264358
81,636231105599369419
81,636231105599474493
81,636231105599579576
81,636231105599684842
81,636231105599789895
81,636231105599894798
81,636231105599999880
81,636231105600104950
81,636231105600210191
81,636231105600315265
81,636231105600420173
81,636231105600525242
81,636231105600630316
81,636231105600735562
81,636231105600840640
81,636231105600945530
81,636231105601045785
81,636231105601150683
81,636231105601255757
81,636231105601360827
81,636231105601465893
81,636231105601570975
81,636231105601676062
81,636231105601786311
81,636231105601891411
81,636231105601996489
81,636231105602101525
81,636231105602206419
81,636231105602311489
81,636231105602416585
81,636231105602521821
81,636231105602626895
81,636231105602736802
81,636231105602841872
81,636231105602947121
81,636231105603052033
81,636231105603162097
81,636231105603267189
81,636231105603372246
81,636231105603477324
81,636231105603582389
81,636231105603687673
80,636231105603797554
80,636231105603902795
80,636231105604007869
80,636231105604112781
80,636231105604222845
80,636231105604328099
80,636231105604433006
80,636231105604538247
80,636231105604643321
80,636231105604748229
80,636231105604853465
80,636231105604958544
80,636231105605063447
80,636231105605173541
80,636231105605283585
80,636231105605388676
80,636231105605493925
80,636231105605598807
80,636231105605704099
80,636231105605808977
80,636231105605914222
80,636231105606019116
80,636231105606124186
80,636231105606229256
80,636231105606334510
80,636231105606439592
80,636231105606544487
80,636231105606649732
80,636231105606754643
80,636231105606859893
80,636231105606964958
80,636231105607069849
80,636231105607174931
80,636231105607280010
80,636231105607385084
80,636231105607490158
80,636231105607600227
80,636231105607705476
80,636231105607810572
80,636231105607915458
80,636231105608020540
80,636231105608125593
80,636231105608230860
80,636231105608335921
80,636231105608440815
80,636231105608545902
80,636231105608651143
80,636231105608756033
80,636231105608861107
80,636231105608966194
80,636231105609071273
80,636231105609176330
80,636231105609281421
80,636231105609386666
80,636231105609496744
80,636231105609601638
80,636231105609706708
80,636231105609811782
80,636231105609916856
80,636231105610022148
80,636231105610127009
80,636231105610237296
80,636231105610342366
80,636231105610452435
80,636231105610557325
80,636231105610662382
80,636231105610772477
80,636231105610877529
80,636231105610982616
80,636231105611087861
80,636231105611197939
80,636231105611303022
80,636231105611407925
80,636231105611512986
80,636231105611618068
80,636231105611723143
80,636231105611828208
80,636231105611938299
80,636231105612043535
80,636231105612148609
80,636231105612253683
80,636231105612358762
80,636231105612463648
80,636231105612568743
80,636231105612673817
80,636231105612778874
80,636231105612883965
80,636231105612989018
80,636231105613094285
80,636231105613199354
80,636231105613304433
80,636231105613409319
80,636231105613514577
80,636231105613619540
80,636231105613724725
80,636231105613834627
80,636231105613939881
80,636231105614049783
80,636231105614154857
80,636231105614260107
80,636231105614365172
80,636231105614470251
80,636231105614575333
80,636231105614680399
80,636231105614785285
80,636231105614890547
80,636231105614995441
80,636231105615100524
80,636231105615210773
80,636231105615315843
80,636231105615420746
80,636231105615525991
80,636231105615630898
80,636231105615735976
80,636231105615841046
80,636231105615946120
80,636231105616051365
80,636231105616156465
80,636231105616261535
80,636231105616366605
80,636231105616471499
80,636231105616576569
80,636231105616681806
80,636231105616786888
80,636231105616896791
80,636231105617002036
80,636231105617106926
80,636231105617212188
80,636231105617317254
80,636231105617422332
80,636231105617527402
80,636231105617632296
80,636231105617737405
80,636231105617842453
80,636231105617947519
80,636231105618052777
80,636231105618157868
80,636231105618262946
80,636231105618368020
80,636231105618472893
80,636231105618577959
80,636231105618683217
80,636231105618788300
80,636231105618898369
80,636231105619008446
80,636231105619113525
80,636231105619218415
80,636231105619323669
80,636231105619428563
80,636231105619533654
80,636231105619638724
80,636231105619743978
80,636231105619848881
