1,636231105045162067
1,636231105045327175
0,636231105045497304
0,636231105045662643
0,636231105045827528
0,636231105045997648
0,636231105046162782
0,636231105046327907
0,636231105046498001
0,636231105046663139
0,636231105046833242
0,636231105046998546
0,636231105047163479
0,636231105047333594
0,636231105047498719
0,636231105047664033
0,636231105047834152
0,636231105047999064
0,636231105048169184
0,636231105048334484
0,636231105048499429
0,636231105048669532
0,636231105048834649
0,636231105048999765
0,636231105049169893
0,636231105049335014
0,636231105049505138
0,636231105049670426
0,636231105049835564
0,636231105050005474
0,636231105050170595
0,636231105050335711
0,636231105050505831
0,636231105050670960
0,636231105050841068
0,636231105051006197
0,636231105051171480
0,636231105051341420
0,636231105051506734
0,636231105051671662
0,636231105051841773
0,636231105052006902
1,636231105052177010
1,636231105052342310
0,636231105052507431
0,636231105052677521
0,636231105052842492
0,636231105053007608
0,636231105053177895
0,636231105053342849
0,636231105053512960
0,636231105053678072
0,636231105053843364
0,636231105054013300
0,636231105054178425
0,636231105054343721
0,636231105054513837
0,636231105054678774
0,636231105054848894
0,636231105055014014
0,636231105055179131
0,636231105055349430
0,636231105055514376
0,636231105055679484
0,636231105055849608
0,636231105056014716
0,636231105056184836
0,636231105056350157
0,636231105056515069
0,636231105056685188
0,636231105056850301
0,636231105057020425
0,636231105057185537
0,636231105057350842
0,636231105057520773
0,636231105057685894
0,636231105057856018
0,636231105058021156
0,636231105058186439
0,636231105058356367
0,636231105058521483
0,636231105058686805
0,636231105058856732
0,636231105059021836
0,636231105059186953
0,636231105059357252
0,636231105059522193
0,636231105059692309
0,636231105059857434
0,636231105060022559
1,636231105060192717
1,636231105060357799
0,636231105060527902
0,636231105060693032
0,636231105060858127
0,636231105061028251
0,636231105061193367
0,636231105061358663
0,636231105061528599
0,636231105061693900
0,636231105061859029
0,636231105062028961
0,636231105062194261
0,636231105062364193
0,636231105062529527
0,636231105062694421
0,636231105062864546
0,636231105063029679
0,636231105063194975
0,636231105063364911
0,636231105063530195
0,636231105063700131
0,636231105063865251
0,636231105064030393
0,636231105064200488
0,636231105064365809
0,636231105064535724
0,636231105064701024
0,636231105064866149
0,636231105065036090
0,636231105065201189
0,636231105065366494
0,636231105065536443
0,636231105065701730
0,636231105065866663
0,636231105066036966
0,636231105066202091
0,636231105066372019
0,636231105066537148
0,636231105066702466
0,636231105066872389
0,636231105067037505
0,636231105067207608
0,636231105067372720
0,636231105067537837
0,636231105067707961
0,636231105067873073
0,636231105068038215
0,636231105068208314
1,636231105068373443
1,636231105068543554
0,636231105068708667
0,636231105068873783
0,636231105069043903
0,636231105069209041
0,636231105069374315
0,636231105069544251
0,636231105069709556
0,636231105069879492
0,636231105070044609
0,636231105070209742
0,636231105070379845
0,636231105070544970
0,636231105070710082
0,636231105070880382
0,636231105071045323
0,636231105071215447
0,636231105071380555
0,636231105071545847
0,636231105071715787
0,636231105071880903
0,636231105072046033
0,636231105072216328
0,636231105072381256
0,636231105072551380
0,636231105072716501
0,636231105072881793
0,636231105073051729
0,636231105073217051
0,636231105073381975
0,636231105073552261
0,636231105073717198
0,636231105073887331
0,636231105074052618
0,636231105074217551
0,636231105074387688
0,636231105074552967
0,636231105074717900
0,636231105074888203
0,636231105075053149
0,636231105075223260
0,636231105075388398
0,636231105075553677
0,636231105075723797
0,636231105075888747
0,636231105076058854
0,636231105076223966
0,636231105076389099
0,636231105076559202
1,636231105076724336
1,636231105076889444
0,636231105077059555
0,636231105077224693
0,636231105077394791
0,636231105077559908
0,636231105077725212
0,636231105077895140
0,636231105078060440
0,636231105078225557
0,636231105078395514
0,636231105078560626
0,636231105078730733
0,636231105078895863
0,636231105079060966
0,636231105079231090
0,636231105079396382
0,636231105079561541
0,636231105079731644
0,636231105079896573
0,636231105080066675
0,636231105080231792
0,636231105080396913
0,636231105080567028
0,636231105080732157
0,636231105080897265
0,636231105081067565
0,636231105081232497
0,636231105081402635
0,636231105081567730
0,636231105081733056
0,636231105081902966
0,636231105082068279
0,636231105082233391
0,636231105082403340
0,636231105082568623
0,636231105082738572
0,636231105082903877
0,636231105083068792
0,636231105083238912
0,636231105083404024
0,636231105083569158
0,636231105083739312
0,636231105083904565
0,636231105084074501
0,636231105084239622
0,636231105084404747
0,636231105084574859
0,636231105084740150
0,636231105084905267
0,636231105085075216
1,636231105085240323
1,636231105085410443
0,636231105085575564
0,636231105085740830
0,636231105085910822
0,636231105086075930
0,636231105086246033
0,636231105086411170
0,636231105086576283
0,636231105086746385
0,636231105086911519
0,636231105087076798
0,636231105087246832
0,636231105087411876
0,636231105087576975
0,636231105087747104
0,636231105087912229
0,636231105088082327
0,636231105088247461
0,636231105088412560
0,636231105088582680
0,636231105088747792
0,636231105088912926
0,636231105089083046
0,636231105089248342
0,636231105089418274
0,636231105089583399
0,636231105089748498
0,636231105089918627
0,636231105090083752
0,636231105090253859
0,636231105090418975
0,636231105090584096
0,636231105090754211
0,636231105090919341
0,636231105091084444
0,636231105091254748
0,636231105091419681
0,636231105091589801
0,636231105091754921
0,636231105091920055
0,636231105092090149
0,636231105092255287
0,636231105092420382
0,636231105092590519
0,636231105092755683
0,636231105092925743
0,636231105093090859
0,636231105093255984
0,636231105093426096
0,636231105093591225
1,636231105093756341
1,636231105093926632
0,636231105094091744
0,636231105094261689
0,636231105094426989
0,636231105094592101
0,636231105094762033
0,636231105094927338
0,636231105095092459
0,636231105095262403
0,636231105095427507
0,636231105095597627
0,636231105095762760
0,636231105095928039
0,636231105096097975
0,636231105096263280
0,636231105096428221
0,636231105096598512
0,636231105096763637
0,636231105096933564
0,636231105097098698
0,636231105097263797
0,636231105097433926
0,636231105097599034
0,636231105097764172
0,636231105097934467
0,636231105098099391
0,636231105098269515
0,636231105098434811
0,636231105098599744
0,636231105098770005
0,636231105098934980
0,636231105099100280
0,636231105099270246
0,636231105099435517
0,636231105099605453
0,636231105099770569
0,636231105099935703
0,636231105100105823
0,636231105100271102
0,636231105100436038
0,636231105100606342
0,636231105100771275
0,636231105100941395
0,636231105101106528
0,636231105101271623
0,636231105101441752
0,636231105101607044
1,636231105101776984
1,636231105101942100
0,636231105102107217
0,636231105102277337
0,636231105102442457
0,636231105102607758
0,636231105102777690
0,636231105102942806
0,636231105103112926
0,636231105103278038
0,636231105103443343
0,636231105103613279
0,636231105103778399
0,636231105103943696
0,636231105104113649
0,636231105104278748
0,636231105104448872
0,636231105104613997
0,636231105104779101
0,636231105104949285
0,636231105105114354
0,636231105105279454
0,636231105105449770
0,636231105105614874
0,636231105105784810
0,636231105105949926
0,636231105106115235
0,636231105106285159
0,636231105106450279
0,636231105106615396
0,636231105106785524
0,636231105106950833
0,636231105107120756
0,636231105107285881
0,636231105107450981
0,636231105107621207
0,636231105107786217
0,636231105107951526
0,636231105108121479
0,636231105108286574
0,636231105108456694
0,636231105108621999
0,636231105108787111
0,636231105108957201
1,636231105109122347
1,636231105109287494
0,636231105109457400
0,636231105109622516
0,636231105109792636
0,636231105109957936
0,636231105110122873
0,636231105110293002
0,636231105110458118
0,636231105110623230
0,636231105110793530
0,636231105110958642
0,636231105111128578
0,636231105111293891
0,636231105111458995
0,636231105111628944
0,636231105111794043
0,636231105111964167
0,636231105112129296
0,636231105112294417
0,636231105112464520
0,636231105112629636
0,636231105112794766
0,636231105112964886
0,636231105113130083
0,636231105113300114
0,636231105113465410
0,636231105113630346
0,636231105113800462
0,636231105113965600
0,636231105114130699
0,636231105114300999
0,636231105114466115
0,636231105114636051
0,636231105114801176
0,636231105114966468
0,636231105115136404
0,636231105115301739
0,636231105115466658
0,636231105115636761
0,636231105115802074
0,636231105115971993
0,636231105116137110
0,636231105116302410
0,636231105116472346
1,636231105116637462
1,636231105116802771
0,636231105116972703
0,636231105117137832
0,636231105117307940
0,636231105117473069
0,636231105117638181
0,636231105117808284
0,636231105117973405
0,636231105118138534
0,636231105118308825
0,636231105118473774
0,636231105118643877
0,636231105118809002
0,636231105118974294
0,636231105119144226
0,636231105119309347
0,636231105119474467
0,636231105119644767
0,636231105119809712
0,636231105119979819
0,636231105120145128
0,636231105120310056
0,636231105120480181
0,636231105120645472
0,636231105120810418
0,636231105120980533
0,636231105121145646
0,636231105121315761
0,636231105121480882
0,636231105121646208
0,636231105121816114
0,636231105121981252
0,636231105122146539
0,636231105122316467
0,636231105122481600
0,636231105122649112
0,636231105122814412
0,636231105122984348
0,636231105123149465
0,636231105123319585
0,636231105123484701
0,636231105123654825
0,636231105123819946
1,636231105123985058
1,636231105124155174
0,636231105124320307
0,636231105124485407
0,636231105124655527
0,636231105124820827
0,636231105124985952
0,636231105125156067
0,636231105125320996
0,636231105125491120
0,636231105125656232
0,636231105125821353
0,636231105125991469
0,636231105126156773
0,636231105126321714
0,636231105126491834
0,636231105126656955
0,636231105126827058
0,636231105126992358
0,636231105127157303
0,636231105127327411
0,636231105127492536
0,636231105127657665
0,636231105127827977
0,636231105127993102
0,636231105128163017
0,636231105128328296
0,636231105128493237
0,636231105128663370
0,636231105128828478
0,636231105128993598
0,636231105129163889
0,636231105129328839
0,636231105129498942
0,636231105129664058
0,636231105129829388
0,636231105129999359
0,636231105130164437
0,636231105130329720
0,636231105130499664
0,636231105130664943
0,636231105130834884
0,636231105131000000
0,636231105131165305
0,636231105131335232
1,636231105131500374
1,636231105131665495
0,636231105131835773
0,636231105132000885
0,636231105132170826
0,636231105132335964
0,636231105132501071
0,636231105132671324
0,636231105132836475
0,636231105133001591
0,636231105133171544
0,636231105133336832
0,636231105133506768
0,636231105133672068
0,636231105133837035
0,636231105134007121
0,636231105134172241
0,636231105134337353
0,636231105134507491
0,636231105134672774
0,636231105134842710
0,636231105135007843
0,636231105135172943
0,636231105135343255
0,636231105135508192
0,636231105135673304
0,636231105135843428
0,636231105136008536
0,636231105136178648
0,636231105136353797
0,636231105136509073
0,636231105136679017
0,636231105136844305
0,636231105137014241
0,636231105137179353
0,636231105137344487
0,636231105137514778
0,636231105137679732
0,636231105137844831
0,636231105138014951
0,636231105138180067
1,636231105138350183
1,636231105138515505
0,636231105138680416
0,636231105138850574
0,636231105139015665
0,636231105139180769
0,636231105139351073
0,636231105139516193
0,636231105139686138
0,636231105139851425
0,636231105140016366
0,636231105140186478
0,636231105140351804
0,636231105140516912
0,636231105140687015
0,636231105140852135
0,636231105141022067
0,636231105141187183
0,636231105141352488
0,636231105141522527
0,636231105141687549
0,636231105141852674
0,636231105142022957
0,636231105142187889
0,636231105142358009
0,636231105142523331
0,636231105142688473
0,636231105142858362
0,636231105143023594
0,636231105143188599
0,636231105143358907
0,636231105143523831
0,636231105143693951
0,636231105143859067
0,636231105144024368
0,636231105144194304
0,636231105144359437
0,636231105144529540
0,636231105144694674
0,636231105144859957
0,636231105145029889
0,636231105145195009
0,636231105145360310
0,636231105145530267
1,636231105145695375
1,636231105145865482
0,636231105146030603
0,636231105146195715
0,636231105146365835
0,636231105146531131
0,636231105146696273
0,636231105146866406
0,636231105147031492
0,636231105147196438
0,636231105147366558
0,636231105147531845
0,636231105147701807
0,636231105147866898
0,636231105148032190
0,636231105148202151
0,636231105148367263
0,636231105148537366
0,636231105148702500
0,636231105148867804
0,636231105149037719
0,636231105149202836
0,636231105149367969
0,636231105149538260
0,636231105149703193
0,636231105149873308
0,636231105150038609
0,636231105150203545
0,636231105150373657
0,636231105150538803
0,636231105150703924
0,636231105150874078
0,636231105151039336
0,636231105151209250
0,636231105151374551
0,636231105151539667
0,636231105151709599
0,636231105151874724
0,636231105152040020
0,636231105152209973
0,636231105152375068
0,636231105152545192
1,636231105152710330
1,636231105152875434
0,636231105153045541
0,636231105153210880
0,636231105153375988
0,636231105153545898
0,636231105153711010
0,636231105153881143
0,636231105154046264
0,636231105154211564
0,636231105154381487
0,636231105154546787
0,636231105154711733
0,636231105154881844
0,636231105155047136
0,636231105155217081
0,636231105155382193
0,636231105155547523
0,636231105155717429
0,636231105155882734
0,636231105156047846
0,636231105156217966
0,636231105156382898
0,636231105156553018
0,636231105156718152
0,636231105156883247
0,636231105157053375
0,636231105157218488
0,636231105157383818
0,636231105157553929
0,636231105157718934
0,636231105157888956
0,636231105158054081
0,636231105158219381
0,636231105158389313
0,636231105158554430
0,636231105158724550
0,636231105158889854
0,636231105159054795
0,636231105159224975
0,636231105159390207
1,636231105159555152
1,636231105159725281
0,636231105159890581
0,636231105160060504
0,636231105160225826
0,636231105160390724
0,636231105160560844
0,636231105160725974
0,636231105160891261
0,636231105161061390
0,636231105161226502
0,636231105161396434
0,636231105161561730
0,636231105161726684
0,636231105161896782
0,636231105162061903
0,636231105162227203
0,636231105162397156
0,636231105162562273
0,636231105162732376
0,636231105162897505
0,636231105163062626
0,636231105163232724
0,636231105163397866
0,636231105163563145
0,636231105163733098
0,636231105163898210
0,636231105164068330
0,636231105164233618
0,636231105164398563
0,636231105164568683
0,636231105164733804
0,636231105164898903
0,636231105165069207
0,636231105165234157
0,636231105165404260
0,636231105165569380
0,636231105165734681
0,636231105165904608
0,636231105166069908
0,636231105166235029
0,636231105166404978
0,636231105166570086
0,636231105166740206
1,636231105166905331
1,636231105167070623
0,636231105167240550
0,636231105167405675
0,636231105167570796
0,636231105167741087
0,636231105167906024
0,636231105168076144
0,636231105168241281
0,636231105168406381
0,636231105168576501
0,636231105168741792
0,636231105168906913
0,636231105169076866
0,636231105169241983
0,636231105169412086
0,636231105169577206
0,636231105169742331
0,636231105169912618
0,636231105170077568
0,636231105170242693
0,636231105170412808
0,636231105170577921
0,636231105170748023
0,636231105170913161
0,636231105171078273
0,636231105171248564
0,636231105171413685
0,636231105171583617
0,636231105171748738
0,636231105171913858
0,636231105172083970
0,636231105172249296
0,636231105172414215
0,636231105172584515
0,636231105172749619
0,636231105172919559
0,636231105173084675
0,636231105173249971
0,636231105173419916
0,636231105173585221
0,636231105173750157
0,636231105173920269
0,636231105174085394
0,636231105174255509
0,636231105174420801
0,636231105174585918
1,636231105174755849
1,636231105174921158
0,636231105175086275
0,636231105175256390
0,636231105175421340
0,636231105175591443
0,636231105175756747
0,636231105175921676
0,636231105176091796
0,636231105176257105
0,636231105176422046
0,636231105176592328
0,636231105176757261
0,636231105176927385
0,636231105177092689
0,636231105177257618
0,636231105177427827
0,636231105177592871
0,636231105177757988
0,636231105177928091
0,636231105178093211
0,636231105178263340
0,636231105178428661
0,636231105178593748
0,636231105178763821
0,636231105178928818
0,636231105179093998
0,636231105179264050
0,636231105179429333
0,636231105179599269
0,636231105179764385
0,636231105179929694
0,636231105180099635
0,636231105180264742
0,636231105180429876
0,636231105180600188
0,636231105180765095
0,636231105180935211
0,636231105181100507
0,636231105181265461
0,636231105181435568
0,636231105181600680
0,636231105181770800
0,636231105181935921
0,636231105182101225
0,636231105182271153
0,636231105182436282
1,636231105182601386
1,636231105182771501
0,636231105182936806
0,636231105183106742
0,636231105183272042
0,636231105183436992
0,636231105183607116
0,636231105183772224
0,636231105183937512
0,636231105184107448
0,636231105184272586
0,636231105184442688
0,636231105184607801
0,636231105184773105
0,636231105184943122
0,636231105185108342
0,636231105185273270
0,636231105185443394
0,636231105185608690
0,636231105185778626
0,636231105185943926
0,636231105186109043
0,636231105186278975
0,636231105186444104
0,636231105186609216
0,636231105186779332
0,636231105186944452
0,636231105187114568
0,636231105187279685
0,636231105187444805
0,636231105187614921
0,636231105187780042
0,636231105187945342
0,636231105188115458
0,636231105188280394
0,636231105188450523
0,636231105188615627
0,636231105188780760
0,636231105188950859
0,636231105189116198
0,636231105189286099
0,636231105189451220
0,636231105189616512
0,636231105189786452
0,636231105189951761
0,636231105190116869
0,636231105190286805
0,636231105190452101
1,636231105190617034
1,636231105190787154
0,636231105190952458
0,636231105191122394
0,636231105191287506
0,636231105191452644
0,636231105191622931
0,636231105191787863
0,636231105191957983
0,636231105192123284
0,636231105192288212
0,636231105192458336
0,636231105192623645
0,636231105192788757
0,636231105192958702
0,636231105193123818
0,636231105193293925
0,636231105193459230
0,636231105193624171
0,636231105193794432
0,636231105193959407
0,636231105194124699
0,636231105194294631
0,636231105194459765
0,636231105194629867
0,636231105194795172
0,636231105194960096
0,636231105195130216
0,636231105195295349
0,636231105195460466
0,636231105195630753
0,636231105195795685
0,636231105195965814
0,636231105196131114
0,636231105196296055
0,636231105196466162
0,636231105196631291
0,636231105196796404
0,636231105196966532
0,636231105197131751
0,636231105197301751
0,636231105197467047
0,636231105197631984
0,636231105197802100
0,636231105197967233
1,636231105198132333
1,636231105198302470
0,636231105198467569
0,636231105198637693
0,636231105198802823
0,636231105198967931
0,636231105199138042
0,636231105199303180
0,636231105199468292
0,636231105199638399
0,636231105199803511
0,636231105199973635
0,636231105200138769
0,636231105200304048
0,636231105200473988
0,636231105200639293
0,636231105200804401
0,636231105200974345
0,636231105201139457
0,636231105201309577
0,636231105201474694
0,636231105201640028
0,636231105201809969
0,636231105201975064
0,636231105202145167
0,636231105202310300
0,636231105202475588
0,636231105202645519
0,636231105202810649
0,636231105202975769
0,636231105203145872
0,636231105203311002
0,636231105203481109
0,636231105203646229
0,636231105203811342
0,636231105203981461
0,636231105204146762
0,636231105204311878
0,636231105204481930
0,636231105204646944
0,636231105204812043
0,636231105204982180
0,636231105205147463
0,636231105205317416
0,636231105205482537
1,636231105205647636
1,636231105205817756
0,636231105205982877
0,636231105206147985
0,636231105206318130
0,636231105206483221
0,636231105206653345
0,636231105206818642
0,636231105206983578
0,636231105207153891
0,636231105207318999
0,636231105207488939
0,636231105207654055
0,636231105207819386
0,636231105207989288
0,636231105208154609
0,636231105208319537
0,636231105208489653
0,636231105208654774
0,636231105208824877
0,636231105208989993
0,636231105209155122
0,636231105209325225
0,636231105209490342
0,636231105209655484
0,636231105209825591
0,636231105209990716
0,636231105210160832
0,636231105210325931
0,636231105210491235
0,636231105210661180
0,636231105210826472
0,636231105210991417
0,636231105211161708
0,636231105211326825
0,636231105211496782
0,636231105211661899
0,636231105211827182
0,636231105211997109
0,636231105212162226
0,636231105212327552
0,636231105212497488
0,636231105212662596
0,636231105212832703
0,636231105212998003
1,636231105213163119
1,636231105213333051
0,636231105213498356
0,636231105213663477
0,636231105213833404
0,636231105213998709
0,636231105214168649
0,636231105214333778
0,636231105214499087
0,636231105214669130
0,636231105214834298
0,636231105214999230
0,636231105215169530
0,636231105215334651
0,636231105215504587
0,636231105215669891
0,636231105215834820
0,636231105216005115
0,636231105216170060
0,636231105216335177
0,636231105216505288
0,636231105216670422
0,636231105216840529
0,636231105217005833
0,636231105217170941
0,636231105217341070
0,636231105217506178
0,636231105217671311
0,636231105217841247
0,636231105218006359
0,636231105218176475
0,636231105218341587
0,636231105218506751
0,636231105218676824
0,636231105218842145
0,636231105219012073
0,636231105219177176
0,636231105219342306
0,636231105219512417
0,636231105219677576
0,636231105219842693
0,636231105220012997
0,636231105220177950
0,636231105220343045
0,636231105220513161
1,636231105220678500
1,636231105220848402
0,636231105221013535
0,636231105221178643
0,636231105221348750
0,636231105221514059
0,636231105221683991
0,636231105221849107
0,636231105222014404
0,636231105222184340
0,636231105222349460
0,636231105222514756
0,636231105222684902
0,636231105222850031
0,636231105223019933
0,636231105223185049
0,636231105223350346
0,636231105223520367
0,636231105223685402
0,636231105223850698
0,636231105224020746
0,636231105224185956
0,636231105224355892
0,636231105224520996
0,636231105224686292
0,636231105224856232
0,636231105225021340
0,636231105225186461
0,636231105225356769
0,636231105225521693
0,636231105225691817
0,636231105225856929
0,636231105226022054
0,636231105226192166
0,636231105226357308
0,636231105226522587
0,636231105226692553
0,636231105226857857
0,636231105227027759
0,636231105227192893
0,636231105227358013
0,636231105227528129
0,636231105227693245
0,636231105227858533
1,636231105228028469
1,636231105228193765
0,636231105228363701
0,636231105228528818
0,636231105228693947
0,636231105228864272
0,636231105229029170
0,636231105229194282
0,636231105229364428
0,636231105229529707
0,636231105229699643
0,636231105229864948
0,636231105230029872
0,636231105230200017
0,636231105230365292
0,636231105230535232
0,636231105230700357
0,636231105230865482
0,636231105231035606
0,636231105231200907
0,636231105231365822
0,636231105231536122
0,636231105231701054
0,636231105231871174
0,636231105232036479
0,636231105232201407
0,636231105232371523
0,636231105232536827
0,636231105232701760
0,636231105232871888
0,636231105233036996
0,636231105233207129
0,636231105233372246
0,636231105233537362
0,636231105233707469
0,636231105233872590
0,636231105234037715
0,636231105234207826
0,636231105234373127
0,636231105234543058
0,636231105234708354
0,636231105234873295
0,636231105235043407
0,636231105235208523
0,636231105235373644
1,636231105235543969
1,636231105235709060
0,636231105235879000
0,636231105236044130
0,636231105236209237
0,636231105236379349
0,636231105236544666
0,636231105236709582
0,636231105236879791
0,636231105237045006
0,636231105237214959
0,636231105237380268
0,636231105237545188
0,636231105237715291
0,636231105237880412
0,636231105238045537
0,636231105238215661
0,636231105238380764
0,636231105238550897
0,636231105238716018
0,636231105238881301
0,636231105239051237
0,636231105239216358
0,636231105239381474
0,636231105239551795
0,636231105239716907
0,636231105239886826
0,636231105240052131
0,636231105240217055
0,636231105240387363
0,636231105240552296
0,636231105240722416
0,636231105240887712
0,636231105241052666
0,636231105241222768
0,636231105241387889
0,636231105241553189
0,636231105241723305
0,636231105241888430
0,636231105242058366
0,636231105242223474
0,636231105242388770
0,636231105242558809
1,636231105242723823
1,636231105242889140
0,636231105243059260
0,636231105243224180
0,636231105243394304
0,636231105243559425
0,636231105243724712
0,636231105243894746
0,636231105244059782
0,636231105244224894
0,636231105244395018
0,636231105244560301
0,636231105244730254
0,636231105244895371
0,636231105245060492
0,636231105245230594
0,636231105245395724
0,636231105245560857
0,636231105245730973
0,636231105245896248
0,636231105246066196
0,636231105246231514
0,636231105246396434
0,636231105246566532
0,636231105246731832
0,636231105246896953
0,636231105247066889
0,636231105247232018
0,636231105247402147
0,636231105247567242
0,636231105247732363
0,636231105247902474
0,636231105248067612
0,636231105248232724
0,636231105248403011
0,636231105248568132
0,636231105248738080
0,636231105248903364
0,636231105249068296
0,636231105249238425
0,636231105249403725
0,636231105249568670
1,636231105249738778
1,636231105249903911
0,636231105250074010
0,636231105250239126
0,636231105250404260
0,636231105250574358
0,636231105250739663
0,636231105250904608
0,636231105251074724
0,636231105251240016
0,636231105251409952
0,636231105251575064
0,636231105251740189
0,636231105251910420
0,636231105252075434
0,636231105252240550
0,636231105252410662
0,636231105252575787
0,636231105252745894
0,636231105252911031
0,636231105253076127
0,636231105253246251
0,636231105253411359
0,636231105253576479
0,636231105253746779
0,636231105253911729
0,636231105254081836
0,636231105254247136
0,636231105254412090
0,636231105254582201
0,636231105254747335
0,636231105254912417
0,636231105255082729
0,636231105255247658
0,636231105255417778
0,636231105255582907
0,636231105255748011
0,636231105255918148
0,636231105256083268
0,636231105256253367
0,636231105256418663
1,636231105256583809
1,636231105256753715
0,636231105256919016
0,636231105257083965
0,636231105257254081
0,636231105257419373
0,636231105257589309
0,636231105257754613
0,636231105257919721
0,636231105258089662
0,636231105258254787
0,636231105258424898
0,636231105258590010
0,636231105258755311
0,636231105258925251
0,636231105259090551
0,636231105259255484
0,636231105259425599
0,636231105259590908
0,636231105259755849
0,636231105259926145
0,636231105260091257
0,636231105260261193
0,636231105260426322
0,636231105260591434
0,636231105260761657
0,636231105260926846
0,636231105261091958
0,636231105261261903
0,636231105261427195
0,636231105261597135
0,636231105261762251
0,636231105261927363
0,636231105262097612
0,636231105262262617
0,636231105262427721
0,636231105262597845
0,636231105262762974
0,636231105262933077
0,636231105263098193
0,636231105263263331
0,636231105263433443
0,636231105263598726
1,636231105263763658
1,636231105263933804
0,636231105264098895
0,636231105264269019
0,636231105264434140
0,636231105264599440
0,636231105264769568
0,636231105264934488
0,636231105265104608
0,636231105265269742
0,636231105265434837
0,636231105265604961
0,636231105265770073
0,636231105265935378
0,636231105266105327
0,636231105266270447
0,636231105266440554
0,636231105266605662
0,636231105266770967
0,636231105266940899
0,636231105267106203
0,636231105267271320
0,636231105267441256
0,636231105267606385
0,636231105267771489
0,636231105267941792
0,636231105268106738
0,636231105268276892
0,636231105268441974
0,636231105268607091
0,636231105268777211
0,636231105268942331
0,636231105269112434
0,636231105269277546
0,636231105269442851
0,636231105269612783
0,636231105269777916
0,636231105269943217
0,636231105270113144
0,636231105270278260
0,636231105270448393
0,636231105270613497
1,636231105270778609
1,636231105270948725
0,636231105271113863
0,636231105271278975
0,636231105271449253
0,636231105271614224
0,636231105271784314
0,636231105271949619
0,636231105272114568
0,636231105272284671
0,636231105272449971
0,636231105272615088
0,636231105272785037
0,636231105272950320
0,636231105273120260
0,636231105273285398
0,636231105273450677
0,636231105273620613
0,636231105273785734
0,636231105273951025
0,636231105274120983
0,636231105274286082
0,636231105274456202
0,636231105274621319
0,636231105274786482
0,636231105274956743
0,636231105275121680
0,636231105275286784
0,636231105275456925
0,636231105275622204
0,636231105275792144
0,636231105275957265
0,636231105276122561
0,636231105276292514
0,636231105276457626
0,636231105276627733
0,636231105276792863
0,636231105276958150
0,636231105277128086
0,636231105277293207
0,636231105277458319
0,636231105277628439
0,636231105277793573
0,636231105277963675
1,636231105278128980
1,636231105278293904
0,636231105278464024
0,636231105278629256
0,636231105278794445
0,636231105278964394
0,636231105279129502
0,636231105279299617
0,636231105279464738
0,636231105279630030
0,636231105279799966
0,636231105279965108
0,636231105280130216
0,636231105280300323
0,636231105280465452
0,636231105280635559
0,636231105280800860
0,636231105280965976
0,636231105281135912
0,636231105281301213
0,636231105281466149
0,636231105281636278
0,636231105281801377
0,636231105281971501
0,636231105282136631
0,636231105282301751
0,636231105282471850
0,636231105282637150
0,636231105282802087
0,636231105282972207
0,636231105283137336
0,636231105283307443
0,636231105283472560
0,636231105283637676
0,636231105283807796
0,636231105283973092
0,636231105284138033
0,636231105284308166
0,636231105284473278
0,636231105284643385
0,636231105284808682
0,636231105284973798
0,636231105285143760
0,636231105285308863
0,636231105285473975
1,636231105285644095
1,636231105285809242
0,636231105285979327
0,636231105286144448
0,636231105286314564
0,636231105286479676
0,636231105286644981
0,636231105286814917
0,636231105286980054
0,636231105287145338
0,636231105287315269
0,636231105287480570
0,636231105287645524
0,636231105287815622
0,636231105287980739
0,636231105288146043
0,636231105288315992
0,636231105288481104
0,636231105288651212
0,636231105288816520
0,636231105288981624
0,636231105289151714
0,636231105289316860
0,636231105289481793
0,636231105289651921
0,636231105289817038
0,636231105289987154
0,636231105290152283
0,636231105290317403
0,636231105290487720
0,636231105290652828
0,636231105290822743
0,636231105290987863
0,636231105291152976
0,636231105291323096
0,636231105291488225
0,636231105291653345
0,636231105291823461
0,636231105291988582
0,636231105292158685
0,636231105292324006
0,636231105292488930
0,636231105292659050
0,636231105292824167
0,636231105292989459
1,636231105293159574
1,636231105293324532
0,636231105293494627
0,636231105293659765
0,636231105293824860
0,636231105293994980
0,636231105294160105
0,636231105294325230
0,636231105294495328
0,636231105294660633
0,636231105294830603
0,636231105294995681
0,636231105295160981
0,636231105295330922
0,636231105295496051
0,636231105295661338
0,636231105295831458
0,636231105295996395
0,636231105296166515
0,636231105296331631
0,636231105296496765
0,636231105296666859
0,636231105296831980
0,636231105296997101
0,636231105297167229
0,636231105297332350
0,636231105297502453
0,636231105297667586
0,636231105297832686
0,636231105298002810
0,636231105298167939
0,636231105298333047
0,636231105298503167
0,636231105298668292
0,636231105298838425
0,636231105299003537
0,636231105299168632
0,636231105299338748
0,636231105299503864
0,636231105299668976
0,636231105299839289
0,636231105300004234
0,636231105300174341
0,636231105300339453
1,636231105300504570
1,636231105300674702
0,636231105300839819
0,636231105301004918
0,636231105301175222
0,636231105301340347
0,636231105301510279
0,636231105301675400
0,636231105301840529
0,636231105302010820
0,636231105302175928
0,636231105302340864
0,636231105302511006
0,636231105302676101
0,636231105302846221
0,636231105303011517
0,636231105303176449
0,636231105303346569
0,636231105303511703
0,636231105303681814
0,636231105303847106
0,636231105304012227
0,636231105304182163
0,636231105304347292
0,636231105304512575
0,636231105304682533
0,636231105304847632
0,636231105305012761
0,636231105305182868
0,636231105305348169
0,636231105305518165
0,636231105305683221
0,636231105305848522
0,636231105306018470
0,636231105306183570
0,636231105306353694
0,636231105306518810
0,636231105306683935
0,636231105306854043
0,636231105307019176
0,636231105307184468
0,636231105307354417
0,636231105307519696
0,636231105307689640
1,636231105307854770
1,636231105308019865
0,636231105308190113
0,636231105308355110
0,636231105308520226
0,636231105308690354
0,636231105308855471
0,636231105309025582
0,636231105309190694
0,636231105309355999
0,636231105309526102
0,636231105309691231
0,636231105309861167
0,636231105310026301
0,636231105310191584
0,636231105310361524
0,636231105310526816
0,636231105310691757
0,636231105310862057
0,636231105311027002
0,636231105311192294
0,636231105311362230
0,636231105311527526
0,636231105311697462
0,636231105311862767
0,636231105312027879
0,636231105312197828
0,636231105312363111
0,636231105312528236
0,636231105312698181
0,636231105312863284
0,636231105313033404
0,636231105313198516
0,636231105313363645
0,636231105313533949
0,636231105313698869
0,636231105313868993
0,636231105314034127
0,636231105314199243
0,636231105314369346
0,636231105314534655
0,636231105314699583
0,636231105314869707
0,636231105315034815
1,636231105315204944
1,636231105315370253
0,636231105315535185
0,636231105315705284
0,636231105315870400
0,636231105316035538
0,636231105316205645
0,636231105316370941
0,636231105316540877
0,636231105316706178
0,636231105316871106
0,636231105317041230
0,636231105317206560
0,636231105317371523
0,636231105317541583
0,636231105317706721
0,636231105317876824
0,636231105318041940
0,636231105318207240
0,636231105318377172
0,636231105318542293
0,636231105318707418
0,636231105318877521
0,636231105319042646
0,636231105319212778
0,636231105319377882
0,636231105319542990
0,636231105319713114
0,636231105319878243
0,636231105320043368
0,636231105320213480
0,636231105320378588
0,636231105320548703
0,636231105320713999
0,636231105320879120
0,636231105321049056
0,636231105321214177
0,636231105321384293
0,636231105321549597
0,636231105321714525
0,636231105321884641
0,636231105322049787
0,636231105322214900
0,636231105322384998
0,636231105322550298
1,636231105322720235
1,636231105322885364
0,636231105323050485
0,636231105323220596
0,636231105323385888
0,636231105323550816
0,636231105323720936
0,636231105323886069
0,636231105324056177
0,636231105324221310
0,636231105324386422
0,636231105324556525
0,636231105324721646
0,636231105324886779
0,636231105325057062
0,636231105325222178
0,636231105325387136
0,636231105325557415
0,636231105325722561
0,636231105325892531
0,636231105326057767
0,636231105326222717
0,636231105326393012
0,636231105326558125
0,636231105326728073
0,636231105326893365
0,636231105327058298
0,636231105327228426
0,636231105327393534
0,636231105327558646
0,636231105327728762
0,636231105327894084
0,636231105328064050
0,636231105328229307
0,636231105328394424
0,636231105328564364
0,636231105328729651
0,636231105328894772
0,636231105329064721
0,636231105329230004
0,636231105329399949
0,636231105329565241
0,636231105329730357
0,636231105329900293
0,636231105330065414
1,636231105330230547
1,636231105330400663
0,636231105330565767
0,636231105330735887
0,636231105330901183
0,636231105331066119
0,636231105331236261
0,636231105331401369
0,636231105331566485
0,636231105331736772
0,636231105331901704
0,636231105332071829
0,636231105332236954
0,636231105332402083
0,636231105332572181
0,636231105332737302
0,636231105332902431
0,636231105333072551
0,636231105333237839
0,636231105333407771
0,636231105333572891
0,636231105333738003
0,636231105333908119
0,636231105334073419
0,636231105334238361
0,636231105334408669
0,636231105334573593
0,636231105334743725
0,636231105334908829
0,636231105335073941
0,636231105335244065
0,636231105335409186
0,636231105335574311
0,636231105335744414
0,636231105335909535
0,636231105336079655
0,636231105336244844
0,636231105336410071
0,636231105336580029
0,636231105336745316
0,636231105336910240
0,636231105337080544
0,636231105337245661
1,636231105337415597
1,636231105337580709
0,636231105337745838
0,636231105337916133
0,636231105338081250
0,636231105338251186
0,636231105338416315
0,636231105338581432
0,636231105338751534
0,636231105338916672
0,636231105339081780
0,636231105339252071
0,636231105339417196
0,636231105339582120
0,636231105339752432
0,636231105339917374
0,636231105340087485
0,636231105340252781
0,636231105340417714
0,636231105340588017
0,636231105340753130
0,636231105340923070
0,636231105341088203
0,636231105341253482
0,636231105341423444
0,636231105341588535
0,636231105341753656
0,636231105341923959
0,636231105342088939
0,636231105342259012
0,636231105342424137
0,636231105342589266
0,636231105342759360
0,636231105342924490
0,636231105343094601
0,636231105343259897
0,636231105343424851
0,636231105343594954
0,636231105343760087
0,636231105343925375
0,636231105344095307
0,636231105344260427
0,636231105344425561
0,636231105344595660
0,636231105344760772
0,636231105344930896
1,636231105345096029
1,636231105345261142
0,636231105345431403
0,636231105345596382
0,636231105345761665
0,636231105345931785
0,636231105346096919
0,636231105346266838
0,636231105346431959
0,636231105346597071
0,636231105346767186
0,636231105346932487
0,636231105347102427
0,636231105347267556
0,636231105347432656
0,636231105347602780
0,636231105347768106
0,636231105347933026
0,636231105348103137
0,636231105348268245
0,636231105348438369
0,636231105348603511
0,636231105348768602
0,636231105348938718
0,636231105349103860
0,636231105349269134
0,636231105349439263
0,636231105349604375
0,636231105349774324
0,636231105349939611
0,636231105350104544
0,636231105350274664
0,636231105350439960
0,636231105350604897
0,636231105350775017
0,636231105350940129
0,636231105351110253
0,636231105351275374
0,636231105351440482
0,636231105351610619
0,636231105351775727
0,636231105351940835
0,636231105352110959
0,636231105352276071
0,636231105352446195
0,636231105352611495
0,636231105352776428
1,636231105352946544
1,636231105353111848
0,636231105353276794
0,636231105353446914
0,636231105353612030
0,636231105353782154
0,636231105353947437
0,636231105354112387
0,636231105354282490
0,636231105354447619
0,636231105354612736
0,636231105354782860
0,636231105354948147
0,636231105355118079
0,636231105355283213
0,636231105355448492
0,636231105355618432
0,636231105355783548
0,636231105355948849
0,636231105356118798
0,636231105356284085
0,636231105356454021
0,636231105356619138
0,636231105356784438
0,636231105356954383
0,636231105357119499
0,636231105357284795
0,636231105357454911
0,636231105357619869
0,636231105357789959
0,636231105357955080
0,636231105358120192
0,636231105358290500
0,636231105358455428
0,636231105358625552
0,636231105358790857
0,636231105358955978
0,636231105359125905
0,636231105359291034
0,636231105359456142
0,636231105359626438
0,636231105359791392
0,636231105359961494
0,636231105360126790
0,636231105360291911
0,636231105360461843
0,636231105360626959
0,636231105360792264
0,636231105360962200
0,636231105361127342
1,636231105361297441
1,636231105361462557
0,636231105361627857
0,636231105361797789
0,636231105361963111
0,636231105362128018
0,636231105362298326
0,636231105362463276
0,636231105362633378
0,636231105362798508
0,636231105362963791
0,636231105363133821
0,636231105363298852
0,636231105363464157
0,636231105363634268
0,636231105363799389
0,636231105363969320
0,636231105364134621
0,636231105364299741
0,636231105364469678
0,636231105364634785
0,636231105364800090
0,636231105364970231
0,636231105365135155
0,636231105365305275
0,636231105365470379
0,636231105365635525
0,636231105365805615
0,636231105365970732
0,636231105366135861
0,636231105366306178
0,636231105366471080
0,636231105366641204
0,636231105366806505
0,636231105366971437
0,636231105367141566
0,636231105367306674
0,636231105367471794
0,636231105367641919
0,636231105367807035
0,636231105367977146
0,636231105368142263
0,636231105368307384
0,636231105368477499
0,636231105368642800
0,636231105368807728
0,636231105368977848
0,636231105369142990
0,636231105369313088
0,636231105369478213
0,636231105369643351
0,636231105369813441
1,636231105369978558
1,636231105370143691
0,636231105370314008
0,636231105370478915
0,636231105370649030
0,636231105370814331
0,636231105370979443
0,636231105371149405
0,636231105371314521
0,636231105371484620
0,636231105371649929
0,636231105371814870
0,636231105371984972
0,636231105372150106
0,636231105372315227
0,636231105372485338
0,636231105372650647
0,636231105372815575
0,636231105372985862
0,636231105373150974
0,636231105373320915
0,636231105373486215
0,636231105373651152
0,636231105373821293
0,636231105373986409
0,636231105374156504
0,636231105374321642
0,636231105374486946
0,636231105374656852
0,636231105374822161
0,636231105374987094
0,636231105375157393
0,636231105375322343
0,636231105375492446
0,636231105375657558
0,636231105375822683
0,636231105375992799
0,636231105376157928
0,636231105376323211
0,636231105376493164
0,636231105376658281
0,636231105376828388
0,636231105376993517
0,636231105377158817
0,636231105377328753
0,636231105377493874
0,636231105377659157
0,636231105377829282
0,636231105377994214
0,636231105378164338
1,636231105378329450
1,636231105378494580
0,636231105378664678
0,636231105378829816
0,636231105378994915
0,636231105379165035
0,636231105379330156
0,636231105379500272
0,636231105379665388
0,636231105379830509
0,636231105380000714
0,636231105380165741
0,636231105380331046
0,636231105380501178
0,636231105380666124
0,636231105380836214
0,636231105381001523
0,636231105381166631
0,636231105381336567
0,636231105381501683
0,636231105381666983
0,636231105381837103
0,636231105382002215
0,636231105382172156
0,636231105382337353
0,636231105382502585
0,636231105382672504
0,636231105382837634
0,636231105383002964
0,636231105383172878
0,636231105383338157
0,636231105383508098
0,636231105383673227
0,636231105383838335
0,636231105384008446
0,636231105384173580
0,636231105384343691
0,636231105384508825
0,636231105384673916
0,636231105384844036
0,636231105385009156
0,636231105385174457
0,636231105385344405
0,636231105385509513
0,636231105385674643
0,636231105385844741
0,636231105386009862
0,636231105386179982
0,636231105386345094
0,636231105386510394
1,636231105386680335
1,636231105386845635
0,636231105387015571
0,636231105387180705
0,636231105387345800
0,636231105387515924
0,636231105387681045
0,636231105387846152
0,636231105388016465
0,636231105388181397
0,636231105388351526
0,636231105388516634
0,636231105388681767
0,636231105388851862
0,636231105389017115
0,636231105389182120
0,636231105389352398
0,636231105389517515
0,636231105389687459
0,636231105389852755
0,636231105390017692
0,636231105390187910
0,636231105390352937
0,636231105390518045
0,636231105390688169
0,636231105390853465
0,636231105391023427
0,636231105391188509
0,636231105391353814
0,636231105391523750
0,636231105391688879
0,636231105391854167
0,636231105392024098
0,636231105392189240
0,636231105392359339
0,636231105392524455
0,636231105392689576
0,636231105392859713
0,636231105393024996
0,636231105393189920
0,636231105393360053
0,636231105393525174
0,636231105393695281
0,636231105393860581
0,636231105394025510
0,636231105394195647
0,636231105394360772
0,636231105394530866
0,636231105394696171
1,636231105394861107
1,636231105395031227
0,636231105395196348
0,636231105395361670
0,636231105395531584
0,636231105395696872
0,636231105395866812
0,636231105396031942
0,636231105396197058
0,636231105396367165
0,636231105396532470
0,636231105396697411
0,636231105396867522
0,636231105397032639
0,636231105397202754
0,636231105397368076
0,636231105397532983
0,636231105397703304
0,636231105397868219
0,636231105398033520
0,636231105398203640
0,636231105398368760
0,636231105398538696
0,636231105398703813
0,636231105398868951
0,636231105399039049
0,636231105399204187
0,636231105399369290
0,636231105399539586
0,636231105399704706
0,636231105399874651
0,636231105400039939
0,636231105400204867
0,636231105400374991
0,636231105400540108
0,636231105400705220
0,636231105400875352
0,636231105401040473
0,636231105401210597
0,636231105401375722
0,636231105401540817
0,636231105401710929
0,636231105401876067
0,636231105402041187
0,636231105402211303
0,636231105402376402
0,636231105402546527
0,636231105402711823
0,636231105402876755
1,636231105403046875
1,636231105403212180
0,636231105403377129
0,636231105403547408
0,636231105403712571
0,636231105403882464
0,636231105404047585
0,636231105404212697
0,636231105404382817
0,636231105404548117
0,636231105404713050
0,636231105404883350
0,636231105405048466
0,636231105405218406
0,636231105405383523
0,636231105405548639
0,636231105405718759
0,636231105405884081
0,636231105406054025
0,636231105406219296
0,636231105406384245
0,636231105406554395
0,636231105406719644
0,636231105406884581
0,636231105407054889
0,636231105407219997
0,636231105407384934
0,636231105407555080
0,636231105407720166
0,636231105407890376
0,636231105408055428
0,636231105408220707
0,636231105408390827
0,636231105408555939
0,636231105408725892
0,636231105408891005
0,636231105409056117
0,636231105409226232
0,636231105409391541
0,636231105409556469
0,636231105409726589
0,636231105409891881
0,636231105410061822
0,636231105410226942
0,636231105410392243
0,636231105410562170
0,636231105410727291
0,636231105410892407
1,636231105411062531
1,636231105411227827
0,636231105411397781
0,636231105411562897
0,636231105411728009
0,636231105411898116
0,636231105412063241
0,636231105412228567
0,636231105412398482
0,636231105412563581
0,636231105412733706
0,636231105412898835
0,636231105413064122
0,636231105413234054
0,636231105413399188
0,636231105413564304
0,636231105413734424
0,636231105413899545
0,636231105414069648
0,636231105414234781
0,636231105414400081
0,636231105414569996
0,636231105414735134
0,636231105414900421
0,636231105415070353
0,636231105415235474
0,636231105415405590
0,636231105415570723
0,636231105415735835
0,636231105415905938
0,636231105416071243
0,636231105416236192
0,636231105416406308
0,636231105416571412
0,636231105416741532
0,636231105416906828
0,636231105417071944
0,636231105417242021
0,636231105417407180
0,636231105417572113
0,636231105417742259
0,636231105417907358
0,636231105418077474
0,636231105418242607
1,636231105418407719
1,636231105418577822
0,636231105418743131
0,636231105418913063
0,636231105419078196
0,636231105419243300
0,636231105419413411
0,636231105419578532
0,636231105419743657
0,636231105419913768
0,636231105420078940
0,636231105420249001
0,636231105420414138
0,636231105420579242
0,636231105420749353
0,636231105420914487
0,636231105421079590
0,636231105421249728
0,636231105421414827
0,636231105421584951
0,636231105421750068
0,636231105421915184
0,636231105422085300
0,636231105422250433
0,636231105422415545
0,636231105422585836
0,636231105422750953
0,636231105422920889
0,636231105423086005
0,636231105423251306
0,636231105423421254
0,636231105423586354
0,636231105423751658
0,636231105423921612
0,636231105424086719
0,636231105424256835
0,636231105424421947
0,636231105424587248
0,636231105424757179
0,636231105424922317
0,636231105425087417
0,636231105425257716
1,636231105425422670
1,636231105425592773
0,636231105425757906
0,636231105425923194
0,636231105426093126
0,636231105426258259
0,636231105426423542
0,636231105426593662
0,636231105426758603
0,636231105426928715
0,636231105427094015
0,636231105427258969
0,636231105427429068
0,636231105427594197
0,636231105427759489
0,636231105427929609
0,636231105428094725
0,636231105428264657
0,636231105428429790
0,636231105428594907
0,636231105428765010
0,636231105428930349
0,636231105429095260
0,636231105429265384
0,636231105429430663
0,636231105429600599
0,636231105429765732
0,636231105429931011
0,636231105430100969
0,636231105430266072
0,636231105430431189
0,636231105430601326
0,636231105430766438
0,636231105430936537
0,636231105431101841
0,636231105431266953
0,636231105431437082
0,636231105431602027
0,636231105431772130
0,636231105431937430
1,636231105432102363
1,636231105432272483
0,636231105432437608
0,636231105432602724
0,636231105432772853
0,636231105432937974
0,636231105433108072
0,636231105433273206
0,636231105433438301
0,636231105433608421
0,636231105433773546
0,636231105433938679
0,636231105434108957
0,636231105434273894
0,636231105434444014
0,636231105434609131
0,636231105434774243
0,636231105434944363
0,636231105435109603
0,636231105435274600
0,636231105435444724
0,636231105435610024
0,636231105435779956
0,636231105435945094
0,636231105436110369
0,636231105436280309
0,636231105436445438
0,636231105436610546
0,636231105436780657
0,636231105436945774
0,636231105437115894
0,636231105437281203
0,636231105437446311
0,636231105437616251
0,636231105437781551
0,636231105437946484
0,636231105438116788
0,636231105438281733
0,636231105438451840
0,636231105438616961
1,636231105438782082
1,636231105438952189
0,636231105439117327
0,636231105439282426
0,636231105439452567
0,636231105439617850
0,636231105439787782
0,636231105439952916
0,636231105440118199
0,636231105440288135
0,636231105440453269
0,636231105440623371
0,636231105440788509
0,636231105440953788
0,636231105441123720
0,636231105441289024
0,636231105441454179
0,636231105441624295
0,636231105441789211
0,636231105441959313
0,636231105442124430
0,636231105442289730
0,636231105442459688
0,636231105442624791
0,636231105442789899
0,636231105442960023
0,636231105443125153
0,636231105443295255
0,636231105443460372
0,636231105443625510
0,636231105443795677
0,636231105443960742
0,636231105444125845
0,636231105444296145
0,636231105444461095
0,636231105444631197
0,636231105444796339
1,636231105444961614
1,636231105445131550
0,636231105445296684
0,636231105445466791
0,636231105445631920
0,636231105445797032
0,636231105445967139
0,636231105446132277
0,636231105446297394
0,636231105446467492
0,636231105446632609
0,636231105446797725
0,636231105446967862
0,636231105447132961
0,636231105447303086
0,636231105447468232
0,636231105447633314
0,636231105447803430
0,636231105447968551
0,636231105448133851
0,636231105448303967
0,636231105448468925
0,636231105448639023
0,636231105448804166
0,636231105448969256
0,636231105449139376
0,636231105449304505
0,636231105449469789
0,636231105449639913
0,636231105449804858
0,636231105449974965
0,636231105450140099
0,636231105450305198
0,636231105450475314
0,636231105450640448
0,636231105450805551
0,636231105450975851
0,636231105451140971
0,636231105451310907
1,636231105451476028
1,636231105451641140
0,636231105451811256
0,636231105451976578
0,636231105452141673
0,636231105452311626
0,636231105452476734
0,636231105452646849
0,636231105452811970
0,636231105452977095
0,636231105453147382
0,636231105453312503
0,636231105453477439
0,636231105453647581
0,636231105453812693
0,636231105453982791
0,636231105454147925
0,636231105454313208
0,636231105454483161
0,636231105454648453
0,636231105454818381
0,636231105454983497
0,636231105455148797
0,636231105455318828
0,636231105455483854
0,636231105455653974
0,636231105455819133
0,636231105455984207
0,636231105456154340
0,636231105456319619
0,636231105456484573
0,636231105456654680
0,636231105456819796
0,636231105456984925
0,636231105457155212
0,636231105457320149
0,636231105457490269
0,636231105457655381
0,636231105457820681
1,636231105457990618
1,636231105458155751
0,636231105458320859
0,636231105458491154
0,636231105458656112
0,636231105458826215
0,636231105458991507
0,636231105459156628
0,636231105459326555
0,636231105459491689
0,636231105459656814
0,636231105459826921
0,636231105459992217
0,636231105460162149
0,636231105460327453
0,636231105460492377
0,636231105460662523
0,636231105460827644
0,636231105460992747
0,636231105461163038
0,636231105461327992
0,636231105461498091
0,636231105461663207
0,636231105461828354
0,636231105461998597
0,636231105462163740
0,636231105462333680
0,636231105462498792
0,636231105462664092
0,636231105462834033
0,636231105462999171
0,636231105463164449
0,636231105463334390
0,636231105463499532
0,636231105463664618
0,636231105463834760
0,636231105463999859
0,636231105464169975
0,636231105464335091
0,636231105464500225
0,636231105464670332
0,636231105464835448
0,636231105465005568
1,636231105465170736
1,636231105465335797
0,636231105465505917
0,636231105465671050
0,636231105465836338
0,636231105466006462
0,636231105466171395
0,636231105466341510
0,636231105466506828
0,636231105466671948
0,636231105466841854
0,636231105467006997
0,636231105467172092
0,636231105467342395
0,636231105467507328
0,636231105467672470
0,636231105467842753
0,636231105468007869
0,636231105468177805
0,636231105468342934
0,636231105468508034
0,636231105468678175
0,636231105468843270
0,636231105469013390
0,636231105469178511
0,636231105469343640
0,636231105469513807
0,636231105469678868
0,636231105469843976
0,636231105470014279
0,636231105470179216
0,636231105470349336
0,636231105470514448
0,636231105470679573
0,636231105470849681
0,636231105471014818
0,636231105471179926
0,636231105471350226
0,636231105471515338
0,636231105471685287
0,636231105471850574
0,636231105472015528
0,636231105472185623
0,636231105472350748
0,636231105472515881
0,636231105472685980
0,636231105472851096
0,636231105473021216
1,636231105473186337
1,636231105473351633
0,636231105473521569
0,636231105473686685
0,636231105473851986
0,636231105474021922
0,636231105474187230
0,636231105474357158
0,636231105474522292
0,636231105474687399
0,636231105474857524
0,636231105475022730
0,636231105475192747
0,636231105475357889
0,636231105475522980
0,636231105475693100
0,636231105475858221
0,636231105476023517
0,636231105476193637
0,636231105476358565
0,636231105476528689
0,636231105476693994
0,636231105476858931
0,636231105477029038
0,636231105477194163
0,636231105477359480
0,636231105477529412
0,636231105477694550
0,636231105477864636
0,636231105478029936
0,636231105478195044
0,636231105478364984
0,636231105478530118
0,636231105478695230
0,636231105478865363
0,636231105479030637
0,636231105479200573
0,636231105479365694
0,636231105479530823
0,636231105479700926
0,636231105479866226
0,636231105480031159
0,636231105480201296
0,636231105480366421
0,636231105480536528
0,636231105480701645
0,636231105480866752
0,636231105481036864
0,636231105481202190
1,636231105481367306
1,636231105481537426
0,636231105481702551
0,636231105481872470
0,636231105482037599
0,636231105482202686
0,636231105482372806
0,636231105482537944
0,636231105482703227
0,636231105482873176
0,636231105483038288
0,636231105483208412
0,636231105483373533
0,636231105483538645
0,636231105483708752
0,636231105483874048
0,636231105484039169
0,636231105484209113
0,636231105484374221
0,636231105484544341
0,636231105484709637
0,636231105484874574
0,636231105485044694
0,636231105485209994
0,636231105485374931
0,636231105485545265
0,636231105485710185
0,636231105485880283
0,636231105486045413
0,636231105486210520
0,636231105486380632
0,636231105486545748
0,636231105486710869
0,636231105486880989
0,636231105487046105
0,636231105487216230
0,636231105487381355
0,636231105487546642
0,636231105487716659
0,636231105487881695
0,636231105488046999
0,636231105488216931
0,636231105488382047
0,636231105488552163
0,636231105488717468
0,636231105488882584
0,636231105489052704
0,636231105489217637
0,636231105489387757
0,636231105489553053
1,636231105489718173
1,636231105489888109
0,636231105490053405
0,636231105490218359
0,636231105490388646
0,636231105490556469
0,636231105490723707
0,636231105490887446
0,636231105491056878
0,636231105491223936
0,636231105491388526
0,636231105491558441
0,636231105491723728
0,636231105491891791
0,636231105492058845
0,636231105492223799
0,636231105492392901
0,636231105492559856
0,636231105492727440
0,636231105492893673
0,636231105493060902
0,636231105493228435
0,636231105493394868
0,636231105493560938
0,636231105493729425
0,636231105493896547
0,636231105494060714
0,636231105494228024
0,636231105494397011
0,636231105494564458
0,636231105494727898
0,636231105494899014
0,636231105495064905
0,636231105495232420
0,636231105495395899
0,636231105495566104
0,636231105495732675
0,636231105495896632
0,636231105496064477
0,636231105496233028
0,636231105496397802
0,636231105496567772
0,636231105496732889
0,636231105496898018
0,636231105497068082
0,636231105497234952
0,636231105497402233
0,636231105497568102
1,636231105497733244
1,636231105497903351
0,636231105498069951
0,636231105498238048
0,636231105498403165
0,636231105498568298
0,636231105498738423
0,636231105498903518
0,636231105499073633
0,636231105499238750
0,636231105499403883
0,636231105499573990
0,636231105499739111
0,636231105499904232
0,636231105500074352
0,636231105500239468
0,636231105500409592
0,636231105500574709
0,636231105500739825
0,636231105500909932
0,636231105501075045
0,636231105501240161
0,636231105501410473
0,636231105501575402
0,636231105501745522
0,636231105501910642
0,636231105502075759
0,636231105502245883
0,636231105502410999
0,636231105502576120
0,636231105502746236
0,636231105502911523
0,636231105503081464
0,636231105503246597
0,636231105503411705
0,636231105503581821
0,636231105503746946
0,636231105503912229
0,636231105504082169
0,636231105504247298
0,636231105504417410
0,636231105504582535
0,636231105504747822
0,636231105504917754
0,636231105505083059
0,636231105505248171
0,636231105505418124
0,636231105505583241
0,636231105505753360
1,636231105505918464
1,636231105506083764
0,636231105506253713
0,636231105506418830
0,636231105506588933
0,636231105506754259
0,636231105506919187
0,636231105507089371
0,636231105507254586
0,636231105507419535
0,636231105507589822
0,636231105507754767
0,636231105507924879
0,636231105508090175
0,636231105508255291
0,636231105508425244
0,636231105508590344
0,636231105508755477
0,636231105508925602
0,636231105509090885
0,636231105509260821
0,636231105509426121
0,636231105509591049
0,636231105509761174
0,636231105509926303
0,636231105510091424
0,636231105510261531
0,636231105510426639
0,636231105510596767
0,636231105510761879
0,636231105510927201
0,636231105511097124
0,636231105511262416
0,636231105511427537
0,636231105511597468
0,636231105511762581
0,636231105511932705
0,636231105512097838
0,636231105512263117
0,636231105512433058
0,636231105512598195
0,636231105512763291
0,636231105512933611
0,636231105513098540
0,636231105513268643
0,636231105513433793
0,636231105513599059
0,636231105513768995
1,636231105513934296
1,636231105514099228
0,636231105514269365
0,636231105514434482
0,636231105514604602
0,636231105514769714
0,636231105514934839
0,636231105515104976
0,636231105515270242
0,636231105515435175
0,636231105515605307
0,636231105515770591
0,636231105515940527
0,636231105516105831
0,636231105516270772
0,636231105516440884
0,636231105516606004
0,636231105516771129
0,636231105516941237
0,636231105517106353
0,636231105517276469
0,636231105517441773
0,636231105517606890
0,636231105517776821
0,636231105517941938
0,636231105518107059
0,636231105518277187
0,636231105518442479
0,636231105518612599
0,636231105518777527
0,636231105518942661
0,636231105519112956
0,636231105519277906
0,636231105519448000
0,636231105519613121
0,636231105519778250
0,636231105519948370
0,636231105520113469
0,636231105520278607
0,636231105520448898
0,636231105520613835
0,636231105520778960
0,636231105520949242
0,636231105521114367
0,636231105521284299
0,636231105521449424
0,636231105521614532
1,636231105521784836
1,636231105521949777
0,636231105522119884
0,636231105522285000
0,636231105522450305
0,636231105522620250
0,636231105522785546
0,636231105522950474
0,636231105523120594
0,636231105523285894
0,636231105523455830
0,636231105523621126
0,636231105523786059
0,636231105523956183
0,636231105524121479
0,636231105524286416
0,636231105524456720
0,636231105524621652
0,636231105524791768
0,636231105524956884
0,636231105525122001
0,636231105525292138
0,636231105525457425
0,636231105525622371
0,636231105525792478
0,636231105525957795
0,636231105526127710
0,636231105526293010
0,636231105526457956
0,636231105526628063
0,636231105526793196
0,636231105526963299
0,636231105527128433
0,636231105527293536
0,636231105527463665
0,636231105527628773
0,636231105527793885
0,636231105527964005
0,636231105528129147
0,636231105528294255
0,636231105528464362
0,636231105528629474
0,636231105528799598
0,636231105528964894
0,636231105529129831
0,636231105529299964
1,636231105529465247
1,636231105529630184
0,636231105529800317
0,636231105529965416
0,636231105530135540
0,636231105530300652
0,636231105530465957
0,636231105530635889
0,636231105530801009
0,636231105530971129
0,636231105531136263
0,636231105531301367
0,636231105531471495
0,636231105531636611
0,636231105531801724
0,636231105531972049
0,636231105532136960
0,636231105532307071
0,636231105532472201
0,636231105532637484
0,636231105532807471
0,636231105532972536
0,636231105533137653
0,636231105533307790
0,636231105533472898
0,636231105533643026
0,636231105533808147
0,636231105533973263
0,636231105534143392
0,636231105534308491
0,636231105534473659
0,636231105534643719
0,636231105534809019
0,636231105534978951
0,636231105535144068
0,636231105535309368
0,636231105535479313
0,636231105535644425
0,636231105535809725
0,636231105535979871
0,636231105536144795
0,636231105536314893
0,636231105536480228
0,636231105536645147
1,636231105536815250
1,636231105536980384
0,636231105537145492
0,636231105537315603
0,636231105537480737
0,636231105537650839
0,636231105537815969
0,636231105537981273
0,636231105538151188
0,636231105538316322
0,636231105538481421
0,636231105538651725
0,636231105538816674
0,636231105538986781
0,636231105539151894
0,636231105539317010
0,636231105539487134
0,636231105539652255
0,636231105539817363
0,636231105539987496
0,636231105540152604
0,636231105540322723
0,636231105540487844
0,636231105540652948
0,636231105540823081
0,636231105540988201
0,636231105541153313
0,636231105541323438
0,636231105541488546
0,636231105541658661
0,636231105541823795
0,636231105541988907
0,636231105542159035
0,636231105542324130
0,636231105542489247
0,636231105542659380
0,636231105542824492
0,636231105542994620
0,636231105543159904
0,636231105543324840
0,636231105543494969
0,636231105543660077
0,636231105543830197
0,636231105543995326
0,636231105544160442
1,636231105544330562
1,636231105544495679
0,636231105544660988
0,636231105544831112
0,636231105544996014
0,636231105545166139
0,636231105545331251
0,636231105545496380
0,636231105545666500
0,636231105545831796
0,636231105545996904
0,636231105546166870
0,636231105546331965
0,636231105546502076
0,636231105546667214
0,636231105546832314
0,636231105547002553
0,636231105547167559
0,636231105547332675
0,636231105547502799
0,636231105547668087
0,636231105547838023
0,636231105548003139
0,636231105548168260
0,636231105548338384
0,636231105548503522
0,636231105548668809
0,636231105548838724
0,636231105549004024
0,636231105549173965
0,636231105549339265
0,636231105549504381
0,636231105549674322
0,636231105549839430
0,636231105550004739
0,636231105550174670
0,636231105550339791
0,636231105550509911
0,636231105550675032
0,636231105550840341
0,636231105551010302
1,636231105551175372
1,636231105551340676
0,636231105551510608
0,636231105551675729
0,636231105551845849
0,636231105552010974
0,636231105552176261
0,636231105552346381
0,636231105552511322
0,636231105552676439
0,636231105552846734
0,636231105553011872
0,636231105553181786
0,636231105553346920
0,636231105553512024
0,636231105553682327
0,636231105553847440
0,636231105554012372
0,636231105554182505
0,636231105554347626
0,636231105554517741
0,636231105554682845
0,636231105554848154
0,636231105555018103
0,636231105555183403
0,636231105555353322
0,636231105555518631
0,636231105555683551
0,636231105555853683
0,636231105556018971
0,636231105556183916
0,636231105556354211
0,636231105556519324
0,636231105556689260
0,636231105556854393
0,636231105557019514
0,636231105557189625
0,636231105557354913
0,636231105557519845
0,636231105557690149
0,636231105557855266
0,636231105558025202
0,636231105558190335
0,636231105558355456
1,636231105558525567
1,636231105558690688
0,636231105558855783
0,636231105559025907
0,636231105559191032
0,636231105559361148
0,636231105559526282
0,636231105559691560
0,636231105559861497
0,636231105560026613
0,636231105560191729
0,636231105560362033
0,636231105560526987
0,636231105560697086
0,636231105560862202
0,636231105561027502
0,636231105561197443
0,636231105561362572
0,636231105561527684
0,636231105561697796
0,636231105561863164
0,636231105562033096
0,636231105562198388
0,636231105562363504
0,636231105562533470
0,636231105562698574
0,636231105562863682
0,636231105563033793
0,636231105563198914
0,636231105563369034
0,636231105563534146
0,636231105563699485
0,636231105563869391
0,636231105564034507
0,636231105564199808
0,636231105564369919
0,636231105564534852
0,636231105564704976
0,636231105564870105
0,636231105565035209
0,636231105565205337
0,636231105565370449
0,636231105565535574
0,636231105565705883
1,636231105565871008
1,636231105566040918
0,636231105566206047
0,636231105566371330
0,636231105566541442
0,636231105566706383
0,636231105566871687
0,636231105567041632
0,636231105567206744
0,636231105567376860
0,636231105567542160
0,636231105567707110
0,636231105567877230
0,636231105568042517
0,636231105568207441
0,636231105568377745
0,636231105568542699
0,636231105568712798
0,636231105568877935
0,636231105569043219
0,636231105569213343
0,636231105569378275
0,636231105569543584
0,636231105569713687
0,636231105569878624
0,636231105570048774
0,636231105570213856
0,636231105570379156
0,636231105570549110
0,636231105570714213
0,636231105570884329
0,636231105571049633
0,636231105571214746
0,636231105571384682
0,636231105571549815
0,636231105571714919
0,636231105571885039
0,636231105572050365
0,636231105572220275
0,636231105572385571
0,636231105572550696
0,636231105572720637
0,636231105572885924
0,636231105573050857
1,636231105573221160
1,636231105573386281
0,636231105573556221
0,636231105573721338
0,636231105573886630
0,636231105574056566
0,636231105574221686
0,636231105574386803
0,636231105574556936
0,636231105574722223
0,636231105574892155
0,636231105575057293
0,636231105575222584
0,636231105575392555
0,636231105575557637
0,636231105575722749
0,636231105575892861
0,636231105576058187
0,636231105576228097
0,636231105576393218
0,636231105576558351
0,636231105576728634
0,636231105576893579
0,636231105577058871
0,636231105577228807
0,636231105577394103
0,636231105577564060
0,636231105577729160
0,636231105577894285
0,636231105578064576
0,636231105578229508
0,636231105578399637
0,636231105578564928
0,636231105578730053
0,636231105578899989
0,636231105579065106
0,636231105579230398
0,636231105579400518
0,636231105579565472
0,636231105579735579
0,636231105579900691
0,636231105580065812
0,636231105580235936
0,636231105580401228
0,636231105580566365
1,636231105580736284
1,636231105580901576
0,636231105581071512
0,636231105581236650
0,636231105581401933
0,636231105581571882
0,636231105581736998
0,636231105581902282
0,636231105582072226
0,636231105582237518
0,636231105582407458
0,636231105582572754
0,636231105582737871
0,636231105582907820
0,636231105583073107
0,636231105583238061
0,636231105583408168
0,636231105583573280
0,636231105583743400
0,636231105583908517
0,636231105584073638
0,636231105584243847
0,636231105584409058
0,636231105584574003
0,636231105584744106
0,636231105584909248
0,636231105585079338
0,636231105585244467
0,636231105585409588
0,636231105585579700
0,636231105585744807
0,636231105585909932
0,636231105586080232
0,636231105586245160
0,636231105586415284
0,636231105586800565
0,636231105586800565
0,636231105586915642
0,636231105587080767
0,636231105587245887
0,636231105587416170
0,636231105587581115
0,636231105587751226
0,636231105587916351
0,636231105588081472
1,636231105588251596
1,636231105588416884
0,636231105588586816
0,636231105588751949
0,636231105588917258
0,636231105589087207
0,636231105589252469
0,636231105589417585
0,636231105589587722
0,636231105589752822
0,636231105589922753
0,636231105590087887
0,636231105590253003
0,636231105590423110
0,636231105590588227
0,636231105590753343
0,636231105590923643
0,636231105591088593
0,636231105591258700
0,636231105591424000
0,636231105591589112
0,636231105591759065
0,636231105591924169
0,636231105592089298
0,636231105592259405
0,636231105592424701
0,636231105592594646
0,636231105592759942
0,636231105592925058
0,636231105593095007
0,636231105593260107
0,636231105593425223
0,636231105593595531
0,636231105593760643
0,636231105593930584
0,636231105594095884
0,636231105594260829
0,636231105594430945
0,636231105594596053
0,636231105594761161
0,636231105594931306
0,636231105595096585
0,636231105595266521
0,636231105595431642
0,636231105595596938
0,636231105595766874
0,636231105595932012
1,636231105596097124
1,636231105596267231
0,636231105596432348
0,636231105596602463
0,636231105596767588
0,636231105596932722
0,636231105597102855
0,636231105597267950
0,636231105597433058
0,636231105597603169
0,636231105597768474
0,636231105597938405
0,636231105598103539
0,636231105598268651
0,636231105598438775
0,636231105598603896
0,636231105598769004
0,636231105598939132
0,636231105599104411
0,636231105599274360
0,636231105599439468
0,636231105599604597
0,636231105599774709
0,636231105599939834
0,636231105600104950
0,636231105600275074
0,636231105600440182
0,636231105600610294
0,636231105600775423
0,636231105600940544
0,636231105601110826
0,636231105601275763
0,636231105601445883
0,636231105601610995
0,636231105601776129
0,636231105601946244
0,636231105602111365
0,636231105602276469
0,636231105602446593
0,636231105602611885
0,636231105602781829
0,636231105602947121
0,636231105603112071
0,636231105603282178
0,636231105603447294
0,636231105603612406
1,636231105603782526
1,636231105603947831
0,636231105604117763
0,636231105604282939
0,636231105604448013
0,636231105604618133
0,636231105604783249
0,636231105604948541
0,636231105605118481
0,636231105605283585
0,636231105605453713
0,636231105605618825
0,636231105605783946
0,636231105605954070
0,636231105606119358
0,636231105606284290
0,636231105606454594
0,636231105606619715
0,636231105606789651
0,636231105606954776
0,636231105607119880
0,636231105607290012
0,636231105607455116
0,636231105607625253
0,636231105607790352
0,636231105607955486
0,636231105608125593
0,636231105608290714
0,636231105608455822
0,636231105608625963
0,636231105608791071
0,636231105608956179
0,636231105609126316
0,636231105609291432
0,636231105609461539
0,636231105609626656
0,636231105609791764
0,636231105609961926
0,636231105610127009
0,636231105610292326
0,636231105610462442
0,636231105610627370
0,636231105610797473
0,636231105610962589
0,636231105611127894
0,636231105611297945
0,636231105611462959
0,636231105611633071
1,636231105611798200
1,636231105611963312
0,636231105612133419
0,636231105612298715
0,636231105612463648
0,636231105612633789
0,636231105612798884
0,636231105612964022
0,636231105613134304
0,636231105613299258
0,636231105613469361
0,636231105613634495
0,636231105613799602
0,636231105613969727
0,636231105614135036
0,636231105614299947
0,636231105614470251
0,636231105614635367
0,636231105614805299
0,636231105614970419
0,636231105615135549
0,636231105615305660
0,636231105615470785
0,636231105615635906
0,636231105615806017
0,636231105615971121
0,636231105616141245
0,636231105616306571
0,636231105616471499
0,636231105616641615
0,636231105616806902
0,636231105616972015
0,636231105617141946
0,636231105617307247
0,636231105617477196
0,636231105617642304
0,636231105617807420
0,636231105617977540
0,636231105618142857
0,636231105618312785
0,636231105618477923
0,636231105618643009
0,636231105618813155
0,636231105618978258
0,636231105619143546
0,636231105619313662
0,636231105619478594
0,636231105619648714
0,636231105619814014
1,636231105619978960
1,636231105620149157
0,636231105620314401
0,636231105620479317
0,636231105620649625
0,636231105620814557
0,636231105620984660
0,636231105621149956
0,636231105621314906
0,636231105621485141
0,636231105621650309
0,636231105621815426
0,636231105621985383
0,636231105622150499
0,636231105622320598
0,636231105622485898
0,636231105622650848
0,636231105622820972
0,636231105622986072
0,636231105623151205
0,636231105623321488
0,636231105623486604
0,636231105623656544
0,636231105623821665
0,636231105623986957
0,636231105624157077
0,636231105624322031
0,636231105624487314
0,636231105624657267
0,636231105624822379
0,636231105624992499
0,636231105625157782
0,636231105625322899
0,636231105625493019
0,636231105625657977
0,636231105625828080
0,636231105625993205
0,636231105626158488
0,636231105626328433
0,636231105626493729
0,636231105626658875
0,636231105626828986
0,636231105626993910
0,636231105627164018
0,636231105627329147
0,636231105627494430
0,636231105627664400
1,636231105627829500
1,636231105627994603
0,636231105628164727
0,636231105628329857
0,636231105628499968
0,636231105628665093
0,636231105628830402
0,636231105629000381
0,636231105629165613
0,636231105629330729
0,636231105629500661
0,636231105629665961
0,636231105629835902
0,636231105630001198
0,636231105630166152
0,636231105630336254
0,636231105630501619
0,636231105630666727
0,636231105630836851
0,636231105631001959
0,636231105631167229
0,636231105631337349
0,636231105631502414
0,636231105631672436
0,636231105631837565
0,636231105632002682
0,636231105632172802
0,636231105632338089
0,636231105632508025
0,636231105632673176
0,636231105632838467
0,636231105633008399
0,636231105633173520
0,636231105633338795
0,636231105633508748
0,636231105633673928
0,636231105633843967
0,636231105634009079
0,636231105634174221
0,636231105634344375
0,636231105634509616
0,636231105634674561
0,636231105634844668
0,636231105635010007
0,636231105635179909
0,636231105635345026
0,636231105635510330
0,636231105635680270
1,636231105635845558
1,636231105636010683
0,636231105636180610
0,636231105636345748
0,636231105636515851
0,636231105636681151
0,636231105636846272
0,636231105637016315
0,636231105637181337
0,636231105637346432
0,636231105637516741
0,636231105637681686
0,636231105637851797
0,636231105638017098
0,636231105638182210
0,636231105638352300
0,636231105638517275
0,636231105638682375
0,636231105638852683
0,636231105639017619
0,636231105639187748
0,636231105639353057
0,636231105639517989
0,636231105639688272
0,636231105639853204
0,636231105640018338
0,636231105640188454
0,636231105640353745
0,636231105640523694
0,636231105640688811
0,636231105640854094
0,636231105641024030
0,636231105641189339
0,636231105641359266
0,636231105641524396
0,636231105641689704
0,636231105641859636
0,636231105642024753
0,636231105642189865
0,636231105642359968
0,636231105642525101
0,636231105642695208
0,636231105642860329
0,636231105643025454
0,636231105643195574
0,636231105643360883
0,636231105643525833
0,636231105643695957
1,636231105643861086
1,636231105644031189
0,636231105644196318
0,636231105644361606
0,636231105644531597
0,636231105644696671
0,636231105644861779
0,636231105645031903
0,636231105645197019
0,636231105645367135
0,636231105645532252
0,636231105645697381
0,636231105645867496
0,636231105646032784
0,636231105646197717
0,636231105646367849
0,636231105646532957
0,636231105646703073
0,636231105646868373
0,636231105647033490
0,636231105647203439
0,636231105647368735
0,636231105647533889
0,636231105647703791
0,636231105647869083
0,636231105648039015
0,636231105648204131
0,636231105648369432
0,636231105648539381
0,636231105648704488
0,636231105648869784
0,636231105649039729
0,636231105649205038
0,636231105649374965
0,636231105649540261
0,636231105649705190
0,636231105649875310
0,636231105650040631
0,636231105650205560
0,636231105650375684
0,636231105650540800
0,636231105650710903
0,636231105650876015
0,636231105651041320
0,636231105651211260
1,636231105651376390
1,636231105651546488
0,636231105651711609
0,636231105651876721
0,636231105652046858
0,636231105652212141
0,636231105652377074
0,636231105652547211
0,636231105652712494
0,636231105652882434
0,636231105653047564
0,636231105653212684
0,636231105653382843
0,636231105653547904
0,636231105653713016
