1,636231111010167920
1,636231111010338186
0,636231111010503308
0,636231111010668404
0,636231111010838298
0,636231111011003390
0,636231111011173485
0,636231111011338765
0,636231111011503665
0,636231111011673956
0,636231111011838873
0,636231111012003944
0,636231111012174060
0,636231111012339323
0,636231111012509230
0,636231111012674322
0,636231111012839594
0,636231111013009509
0,636231111013174609
0,636231111013339693
0,636231111013510002
0,636231111013674901
0,636231111013844975
0,636231111014010251
0,636231111014175347
0,636231111014345249
0,636231111014510367
0,636231111014675630
0,636231111014845712
0,636231111015010809
0,636231111015180720
0,636231111015345837
0,636231111015511088
0,636231111015681024
0,636231111015846279
0,636231111016011367
0,636231111016181282
0,636231111016346365
0,636231111016516465
0,636231111016681796
0,636231111016846709
0,636231111017016816
0,636231111017181896
0,636231111017347171
0,636231111017517082
0,636231111017682187
0,636231111017852269
1,636231111018017379
1,636231111018182449
0,636231111018352600
0,636231111018517645
0,636231111018682908
0,636231111018852823
0,636231111019017924
0,636231111019188010
0,636231111019353106
0,636231111019518194
0,636231111019688289
0,636231111019853398
0,636231111020023476
0,636231111020188756
0,636231111020353844
0,636231111020523879
0,636231111020688868
0,636231111020853943
0,636231111021024051
0,636231111021189130
0,636231111021359225
0,636231111021524330
0,636231111021689585
0,636231111021859500
0,636231111022024797
0,636231111022189701
0,636231111022359779
0,636231111022524871
0,636231111022694966
0,636231111022860250
0,636231111023025150
0,636231111023195262
0,636231111023360525
0,636231111023525442
0,636231111023695541
0,636231111023860620
0,636231111024030715
0,636231111024195987
0,636231111024361113
0,636231111024531182
0,636231111024696270
0,636231111024861358
0,636231111025031286
0,636231111025196549
0,636231111025366473
1,636231111025531565
1,636231111025696824
0,636231111025866735
0,636231111026032011
0,636231111026197137
0,636231111026367039
0,636231111026532294
0,636231111026702205
0,636231111026867481
0,636231111027032577
0,636231111027202668
0,636231111027367589
0,636231111027532848
0,636231111027702947
0,636231111027868039
0,636231111028037946
0,636231111028203226
0,636231111028368314
0,636231111028538421
0,636231111028703505
0,636231111028868597
0,636231111029038687
0,636231111029203596
0,636231111029373691
0,636231111029538966
0,636231111029704067
0,636231111029873970
0,636231111030039113
0,636231111030204167
0,636231111030374441
0,636231111030539524
0,636231111030709440
0,636231111030874528
0,636231111031039804
0,636231111031209714
0,636231111031374811
0,636231111031539903
0,636231111031709994
0,636231111031875086
0,636231111032045180
0,636231111032210273
0,636231111032375369
0,636231111032545459
0,636231111032710552
0,636231111032875648
0,636231111033045743
0,636231111033210835
0,636231111033380930
0,636231111033546022
0,636231111033711118
0,636231111033881209
0,636231111034046309
1,636231111034211397
1,636231111034381492
0,636231111034546575
0,636231111034716683
0,636231111034881771
0,636231111035046863
0,636231111035216958
0,636231111035382054
0,636231111035552141
0,636231111035717237
0,636231111035882325
0,636231111036052424
0,636231111036217516
0,636231111036387671
0,636231111036552703
0,636231111036717791
0,636231111036887890
0,636231111037052978
0,636231111037218070
0,636231111037388160
0,636231111037553261
0,636231111037723351
0,636231111037888448
0,636231111038053536
0,636231111038223643
0,636231111038388727
0,636231111038553815
0,636231111038723909
0,636231111038889001
0,636231111039054089
0,636231111039224188
0,636231111039389280
0,636231111039559375
0,636231111039724472
0,636231111039889559
0,636231111040059650
0,636231111040224751
0,636231111040389838
0,636231111040559929
0,636231111040725021
0,636231111040895120
0,636231111041060217
0,636231111041225304
0,636231111041395399
0,636231111041560491
0,636231111041725583
0,636231111041895674
0,636231111042060770
0,636231111042230865
0,636231111042395957
0,636231111042566052
0,636231111042731140
0,636231111042896236
0,636231111043066327
0,636231111043231419
1,636231111043396520
1,636231111043566610
0,636231111043731907
0,636231111043896803
0,636231111044066885
0,636231111044231985
0,636231111044402085
0,636231111044567172
0,636231111044732260
0,636231111044902355
0,636231111045067451
0,636231111045232531
0,636231111045402630
0,636231111045567722
0,636231111045733002
0,636231111045903093
0,636231111046068001
0,636231111046238113
0,636231111046403192
0,636231111046568280
0,636231111046738375
0,636231111046903651
0,636231111047073566
0,636231111047238654
0,636231111047403930
0,636231111047573853
0,636231111047738937
0,636231111047904230
0,636231111048074304
0,636231111048239229
0,636231111048409311
0,636231111048574407
0,636231111048739495
0,636231111048909590
0,636231111049074887
0,636231111049239988
0,636231111049409869
0,636231111049575145
0,636231111049745052
0,636231111049910148
0,636231111050075424
0,636231111050245331
0,636231111050410440
0,636231111050575532
0,636231111050745631
0,636231111050910714
0,636231111051080796
0,636231111051246102
0,636231111051411169
0,636231111051581093
0,636231111051746351
0,636231111051916262
0,636231111052081367
0,636231111052246464
0,636231111052416541
1,636231111052581633
1,636231111052746726
0,636231111052916829
0,636231111053082131
0,636231111053252007
0,636231111053417288
0,636231111053582191
0,636231111053752308
0,636231111053917383
0,636231111054082492
0,636231111054252753
0,636231111054417846
0,636231111054587757
0,636231111054753037
0,636231111054917936
0,636231111055088048
0,636231111055253333
0,636231111055418232
0,636231111055588494
0,636231111055753590
0,636231111055923497
0,636231111056088782
0,636231111056253861
0,636231111056423887
0,636231111056589052
0,636231111056754157
0,636231111056924059
0,636231111057089164
0,636231111057259246
0,636231111057424373
0,636231111057589431
0,636231111057759581
0,636231111057924797
0,636231111058089722
0,636231111058259817
0,636231111058424909
0,636231111058594991
0,636231111058760083
0,636231111058925180
0,636231111059095283
0,636231111059260375
0,636231111059425677
0,636231111059595558
0,636231111059760654
0,636231111059930749
0,636231111060095837
0,636231111060260938
0,636231111060431199
0,636231111060596287
0,636231111060761383
0,636231111060931294
0,636231111061096382
0,636231111061266477
1,636231111061431783
1,636231111061596682
0,636231111061766953
0,636231111061932036
0,636231111062096957
0,636231111062267227
0,636231111062432311
0,636231111062602226
0,636231111062767322
0,636231111062932410
0,636231111063102509
0,636231111063267597
0,636231111063432685
0,636231111063602780
0,636231111063767868
0,636231111063937984
0,636231111064103059
0,636231111064268151
0,636231111064438430
0,636231111064603338
0,636231111064768618
0,636231111064938709
0,636231111065103630
0,636231111065273712
0,636231111065438804
0,636231111065603896
0,636231111065773995
0,636231111065939087
0,636231111066109182
0,636231111066274287
0,636231111066439362
0,636231111066609457
0,636231111066774557
0,636231111066939658
0,636231111067109740
0,636231111067274836
0,636231111067439924
0,636231111067610015
0,636231111067775111
0,636231111067945206
0,636231111068110298
0,636231111068275394
0,636231111068445481
0,636231111068610573
0,636231111068780672
0,636231111068945760
0,636231111069110852
0,636231111069280955
0,636231111069446043
0,636231111069611131
1,636231111069781230
1,636231111069946326
0,636231111070116417
0,636231111070281509
0,636231111070446609
0,636231111070616691
0,636231111070781801
0,636231111070946893
0,636231111071116983
0,636231111071282071
0,636231111071452166
0,636231111071617438
0,636231111071782560
0,636231111071952646
0,636231111072117721
0,636231111072282804
0,636231111072452737
0,636231111072617996
0,636231111072787902
0,636231111072953183
0,636231111073118292
0,636231111073288181
0,636231111073453295
0,636231111073618562
0,636231111073788469
0,636231111073953557
0,636231111074123652
0,636231111074288739
0,636231111074453836
0,636231111074623931
0,636231111074789023
0,636231111074954115
0,636231111075124210
0,636231111075289302
0,636231111075459401
0,636231111075624493
0,636231111075789589
0,636231111075959680
0,636231111076124776
0,636231111076289864
0,636231111076459959
0,636231111076625047
0,636231111076795141
0,636231111076960242
0,636231111077125326
0,636231111077295420
0,636231111077460517
0,636231111077625600
0,636231111077795704
1,636231111077960796
1,636231111078130886
0,636231111078295983
0,636231111078461075
0,636231111078631161
0,636231111078796262
0,636231111078961354
0,636231111079131449
0,636231111079296536
0,636231111079466627
0,636231111079631719
0,636231111079796815
0,636231111079966906
0,636231111080132002
0,636231111080297090
0,636231111080467189
0,636231111080632277
0,636231111080802380
0,636231111080967464
0,636231111081132560
0,636231111081302655
0,636231111081467743
0,636231111081637842
0,636231111081802934
0,636231111081968026
0,636231111082138117
0,636231111082303213
0,636231111082468310
0,636231111082638404
0,636231111082803497
0,636231111082973587
0,636231111083138683
0,636231111083303771
0,636231111083473870
0,636231111083638958
0,636231111083804050
0,636231111083974145
0,636231111084139241
0,636231111084309332
0,636231111084474424
0,636231111084639520
0,636231111084809611
0,636231111084974703
0,636231111085139795
0,636231111085309890
0,636231111085474982
0,636231111085645077
0,636231111085810173
0,636231111085975261
1,636231111086145356
1,636231111086310444
0,636231111086475532
0,636231111086645635
0,636231111086810727
0,636231111086980822
0,636231111087145910
0,636231111087311010
0,636231111087481135
0,636231111087646206
0,636231111087811289
0,636231111087981376
0,636231111088146472
0,636231111088316567
0,636231111088481838
0,636231111088646764
0,636231111088816863
0,636231111088981951
0,636231111089152033
0,636231111089317138
0,636231111089482213
0,636231111089652307
0,636231111089817417
0,636231111089982509
0,636231111090152779
0,636231111090317871
0,636231111090487773
0,636231111090652865
0,636231111090817962
0,636231111090988065
0,636231111091153162
0,636231111091318237
0,636231111091488549
0,636231111091653612
0,636231111091823518
0,636231111091988619
0,636231111092153720
0,636231111092323861
0,636231111092488907
0,636231111092653986
0,636231111092824269
0,636231111092989177
0,636231111093159263
0,636231111093324543
0,636231111093489447
0,636231111093659564
0,636231111093824827
1,636231111093989919
1,636231111094159817
0,636231111094325101
0,636231111094495017
0,636231111094660288
0,636231111094825192
0,636231111094995313
0,636231111095160392
0,636231111095325655
0,636231111095495771
0,636231111095660864
0,636231111095830753
0,636231111095996033
0,636231111096161121
0,636231111096331036
0,636231111096496141
0,636231111096661225
0,636231111096831495
0,636231111096996617
0,636231111097166507
0,636231111097331689
0,636231111097496870
0,636231111097666974
0,636231111097832053
0,636231111097996961
0,636231111098167056
0,636231111098332332
0,636231111098502256
0,636231111098667523
0,636231111098832423
0,636231111099002526
0,636231111099167623
0,636231111099337709
0,636231111099502818
0,636231111099668073
0,636231111099837988
0,636231111100003089
0,636231111100168193
0,636231111100338451
0,636231111100503543
0,636231111100673458
0,636231111100838734
0,636231111101003638
1,636231111101173737
1,636231111101339017
0,636231111101503934
0,636231111101674200
0,636231111101839121
0,636231111102004380
0,636231111102174505
0,636231111102339567
0,636231111102509593
0,636231111102674600
0,636231111102839679
0,636231111103009761
0,636231111103174866
0,636231111103344944
0,636231111103510224
0,636231111103675320
0,636231111103845244
0,636231111104010503
0,636231111104175591
0,636231111104345703
0,636231111104510594
0,636231111104680689
0,636231111104845969
0,636231111105010873
0,636231111105181164
0,636231111105346081
0,636231111105511182
0,636231111105681247
0,636231111105846535
0,636231111106016446
0,636231111106181534
0,636231111106346810
0,636231111106516734
0,636231111106681826
0,636231111106847085
0,636231111107017175
0,636231111107182084
0,636231111107352183
0,636231111107517480
0,636231111107682547
0,636231111107852466
0,636231111108017751
0,636231111108182642
0,636231111108352754
0,636231111108517841
1,636231111108687928
1,636231111108853208
0,636231111109018296
0,636231111109188203
0,636231111109353478
0,636231111109518404
0,636231111109688486
0,636231111109853595
0,636231111110023673
0,636231111110188953
0,636231111110354041
0,636231111110523994
0,636231111110689232
0,636231111110854320
0,636231111111024415
0,636231111111189319
0,636231111111359418
0,636231111111524689
0,636231111111689790
0,636231111111859697
0,636231111112024793
0,636231111112189881
0,636231111112359993
0,636231111112525273
0,636231111112695163
0,636231111112860443
0,636231111113025535
0,636231111113195454
0,636231111113360551
0,636231111113530629
0,636231111113695716
0,636231111113860992
0,636231111114031096
0,636231111114195995
0,636231111114366094
0,636231111114531375
0,636231111114696291
0,636231111114866369
0,636231111115031645
0,636231111115196741
0,636231111115366648
0,636231111115531753
0,636231111115696845
0,636231111115867120
0,636231111116032024
0,636231111116202123
1,636231111116367429
1,636231111116532303
0,636231111116702410
0,636231111116867502
0,636231111117032765
0,636231111117202676
0,636231111117367768
0,636231111117537876
0,636231111117702955
0,636231111117868065
0,636231111118038147
0,636231111118203239
0,636231111118368536
0,636231111118538426
0,636231111118703513
0,636231111118873613
0,636231111119038717
0,636231111119203972
0,636231111119374071
0,636231111119538996
0,636231111119704071
0,636231111119874166
0,636231111120039254
0,636231111120209353
0,636231111120374445
0,636231111120539743
0,636231111120709645
0,636231111120874925
0,636231111121040004
0,636231111121209924
0,636231111121374995
0,636231111121545098
0,636231111121710190
0,636231111121875299
0,636231111122045565
0,636231111122210473
0,636231111122380568
0,636231111122545660
0,636231111122710962
0,636231111122880847
0,636231111123045935
0,636231111123211023
0,636231111123381344
0,636231111123546240
0,636231111123716309
0,636231111123881422
1,636231111124046677
1,636231111124216597
0,636231111124381701
0,636231111124546768
0,636231111124716876
0,636231111124881968
0,636231111125047060
0,636231111125217167
0,636231111125382251
0,636231111125552333
0,636231111125717425
0,636231111125882705
0,636231111126052625
0,636231111126217717
0,636231111126382813
0,636231111126552912
0,636231111126718026
0,636231111126888142
0,636231111127053183
0,636231111127218266
0,636231111127388536
0,636231111127553633
0,636231111127723544
0,636231111127888640
0,636231111128053912
0,636231111128223827
0,636231111128388915
0,636231111128554033
0,636231111128724298
0,636231111128889292
0,636231111129059284
0,636231111129224381
0,636231111129389473
0,636231111129559568
0,636231111129724664
0,636231111129889748
0,636231111130059847
0,636231111130224935
0,636231111130395029
0,636231111130560126
0,636231111130725243
0,636231111130895321
0,636231111131060409
1,636231111131225505
1,636231111131395596
0,636231111131560684
0,636231111131730779
0,636231111131896016
0,636231111132060984
0,636231111132231177
0,636231111132396150
0,636231111132561430
0,636231111132731337
0,636231111132896613
0,636231111133066524
0,636231111133231637
0,636231111133396708
0,636231111133566803
0,636231111133732091
0,636231111133901989
0,636231111134067086
0,636231111134232357
0,636231111134402268
0,636231111134567544
0,636231111134732632
0,636231111134902565
0,636231111135067635
0,636231111135237734
0,636231111135403036
0,636231111135567914
0,636231111135738009
0,636231111135903101
0,636231111136068377
0,636231111136238476
0,636231111136403573
0,636231111136573475
0,636231111136738571
0,636231111136903668
0,636231111137073763
0,636231111137238872
0,636231111137404131
0,636231111137574054
0,636231111137739309
0,636231111137909220
0,636231111138074312
0,636231111138239588
0,636231111138409503
0,636231111138574779
0,636231111138739884
0,636231111138909795
1,636231111139074900
1,636231111139244965
0,636231111139410288
0,636231111139575170
0,636231111139745265
0,636231111139910340
0,636231111140075612
0,636231111140245544
0,636231111140410816
0,636231111140580714
0,636231111140745819
0,636231111140910898
0,636231111141081006
0,636231111141246273
0,636231111141411173
0,636231111141581268
0,636231111141746552
0,636231111141916472
0,636231111142081739
0,636231111142246827
0,636231111142416738
0,636231111142582014
0,636231111142746926
0,636231111142917017
0,636231111143082148
0,636231111143252200
0,636231111143417296
0,636231111143582401
0,636231111143752667
0,636231111143917571
0,636231111144082680
0,636231111144252856
0,636231111144418046
0,636231111144587949
0,636231111144753054
0,636231111144918129
0,636231111145088425
0,636231111145253341
0,636231111145418609
0,636231111145588687
0,636231111145753800
0,636231111145923694
0,636231111146088974
0,636231111146254062
0,636231111146424161
0,636231111146589257
0,636231111146754345
0,636231111146924431
0,636231111147089528
1,636231111147259439
1,636231111147424535
0,636231111147589636
0,636231111147759927
0,636231111147924994
0,636231111148090082
0,636231111148260005
0,636231111148425085
0,636231111148595338
0,636231111148760276
0,636231111148925552
0,636231111149095484
0,636231111149260743
0,636231111149430650
0,636231111149595742
0,636231111149761018
0,636231111149930929
0,636231111150096038
0,636231111150261109
0,636231111150431208
0,636231111150596308
0,636231111150766395
0,636231111150931675
0,636231111151096574
0,636231111151266678
0,636231111151431779
0,636231111151596866
0,636231111151766965
0,636231111151932049
0,636231111152102152
0,636231111152267411
0,636231111152432345
0,636231111152602419
0,636231111152767511
0,636231111152932616
0,636231111153102702
0,636231111153267973
0,636231111153437889
0,636231111153602981
0,636231111153768081
0,636231111153938369
0,636231111154103251
0,636231111154268369
0,636231111154438626
0,636231111154603530
0,636231111154773629
0,636231111154938905
0,636231111155103809
0,636231111155274118
0,636231111155439000
1,636231111155604093
1,636231111155774205
0,636231111155939297
0,636231111156109374
0,636231111156274672
0,636231111156439764
0,636231111156609713
0,636231111156774763
0,636231111156940017
0,636231111157109945
0,636231111157275037
0,636231111157445119
0,636231111157610391
0,636231111157775308
0,636231111157945595
0,636231111158110713
0,636231111158275766
0,636231111158445857
0,636231111158610769
0,636231111158780864
0,636231111158946144
0,636231111159111044
0,636231111159281327
0,636231111159446252
0,636231111159616330
0,636231111159781606
0,636231111159946544
0,636231111160116613
0,636231111160281889
0,636231111160447011
0,636231111160616910
0,636231111160782185
0,636231111160952075
0,636231111161117372
0,636231111161282473
0,636231111161452354
0,636231111161617630
0,636231111161782722
0,636231111161952650
0,636231111162117909
0,636231111162287816
0,636231111162452916
0,636231111162618209
0,636231111162788095
0,636231111162953187
0,636231111163118463
0,636231111163288378
0,636231111163453466
1,636231111163623565
1,636231111163788674
0,636231111163953929
0,636231111164124032
0,636231111164289120
0,636231111164454045
0,636231111164624132
0,636231111164789236
0,636231111164959306
0,636231111165124398
0,636231111165289494
0,636231111165459610
0,636231111165624869
0,636231111165789786
0,636231111165959864
0,636231111166125140
0,636231111166295093
0,636231111166460147
0,636231111166625419
0,636231111166795347
0,636231111166960610
0,636231111167125706
0,636231111167295634
0,636231111167460889
0,636231111167630800
0,636231111167795900
0,636231111167960984
0,636231111168131263
0,636231111168296171
0,636231111168461276
0,636231111168631542
0,636231111168796642
0,636231111168966540
0,636231111169131821
0,636231111169296729
0,636231111169466824
0,636231111169631916
0,636231111169797192
0,636231111169967103
0,636231111170132379
0,636231111170302290
0,636231111170467386
0,636231111170632658
0,636231111170802752
0,636231111170967874
0,636231111171137751
0,636231111171302843
0,636231111171468124
1,636231111171638030
1,636231111171803306
0,636231111171968249
0,636231111172138497
0,636231111172303598
0,636231111172468498
0,636231111172638614
0,636231111172803864
0,636231111172973831
0,636231111173139094
0,636231111173303959
0,636231111173474080
0,636231111173639151
0,636231111173809245
0,636231111173974517
0,636231111174139442
0,636231111174309580
0,636231111174474800
0,636231111174639717
0,636231111174809816
0,636231111174975079
0,636231111175145003
0,636231111175310262
0,636231111175475363
0,636231111175645458
0,636231111175810361
0,636231111175975637
0,636231111176145728
0,636231111176310649
0,636231111176480731
0,636231111176646033
0,636231111176810928
0,636231111176981019
0,636231111177146299
0,636231111177311211
0,636231111177481293
0,636231111177646402
0,636231111177816493
0,636231111177981585
0,636231111178146848
0,636231111178316772
0,636231111178482035
0,636231111178651946
0,636231111178817051
0,636231111178982314
0,636231111179152234
0,636231111179317322
0,636231111179482422
1,636231111179652701
1,636231111179817784
0,636231111179987695
0,636231111180152967
0,636231111180317880
0,636231111180487974
0,636231111180653242
0,636231111180818334
0,636231111180988437
0,636231111181153525
0,636231111181323436
0,636231111181488712
0,636231111181653813
0,636231111181823715
0,636231111181988824
0,636231111182153899
0,636231111182324178
0,636231111182489099
0,636231111182659177
0,636231111182824457
0,636231111182989553
0,636231111183159494
0,636231111183324556
0,636231111183489819
0,636231111183659919
0,636231111183825045
0,636231111183990124
0,636231111184160227
0,636231111184325298
0,636231111184495201
0,636231111184660293
0,636231111184825581
0,636231111184995488
0,636231111185160572
0,636231111185330671
0,636231111185495759
0,636231111185661052
0,636231111185830967
0,636231111185996038
0,636231111186161314
0,636231111186331421
0,636231111186496334
0,636231111186666416
0,636231111186831504
0,636231111186996784
0,636231111187166712
0,636231111187331795
0,636231111187496883
0,636231111187666995
1,636231111187832250
1,636231111188002161
0,636231111188167270
0,636231111188332341
0,636231111188502453
0,636231111188667549
0,636231111188832641
0,636231111189002898
0,636231111189167828
0,636231111189337906
0,636231111189502998
0,636231111189668094
0,636231111189838373
0,636231111190003277
0,636231111190168382
0,636231111190338464
0,636231111190503735
0,636231111190673646
0,636231111190838922
0,636231111191007093
0,636231111191173968
0,636231111191338637
0,636231111191507945
0,636231111191671959
0,636231111191840990
0,636231111192008870
0,636231111192175800
0,636231111192343351
0,636231111192510324
0,636231111192675827
0,636231111192843515
0,636231111193010680
0,636231111193179292
0,636231111193344875
0,636231111193512195
0,636231111193679395
0,636231111193843961
0,636231111194012833
0,636231111194180046
0,636231111194347050
0,636231111194510936
0,636231111194680864
0,636231111194846910
0,636231111195014101
1,636231111195181917
1,636231111195349378
0,636231111195513829
0,636231111195678963
0,636231111195849832
0,636231111196014672
0,636231111196182325
0,636231111196350864
0,636231111196515943
0,636231111196681035
0,636231111196851130
0,636231111197016231
0,636231111197181318
0,636231111197351730
0,636231111197518357
0,636231111197686087
0,636231111197851200
0,636231111198021287
0,636231111198187114
0,636231111198353605
0,636231111198522087
0,636231111198688253
0,636231111198853105
0,636231111199018185
0,636231111199188284
0,636231111199353367
0,636231111199523466
0,636231111199688580
0,636231111199853659
0,636231111200023929
0,636231111200188837
0,636231111200353925
0,636231111200524024
0,636231111200689134
0,636231111200859207
0,636231111201024487
0,636231111201189404
0,636231111201359486
0,636231111201524766
0,636231111201689670
0,636231111201859765
0,636231111202024870
0,636231111202194952
0,636231111202360138
0,636231111202525140
0,636231111202695240
0,636231111202860533
1,636231111203030414
1,636231111203195527
0,636231111203360790
0,636231111203530714
0,636231111203695789
0,636231111203861065
0,636231111204031156
0,636231111204196068
0,636231111204366163
0,636231111204531255
0,636231111204696347
0,636231111204866446
0,636231111205031718
0,636231111205196806
0,636231111205366738
0,636231111205531997
0,636231111205701908
0,636231111205867000
0,636231111206032280
0,636231111206202230
0,636231111206367471
0,636231111206532371
0,636231111206702466
0,636231111206867575
0,636231111207037657
0,636231111207202950
0,636231111207368042
0,636231111207537949
0,636231111207703028
0,636231111207868120
0,636231111208038399
0,636231111208203495
0,636231111208373398
0,636231111208538485
0,636231111208703603
0,636231111208873681
0,636231111209038769
0,636231111209203874
0,636231111209374169
0,636231111209539236
0,636231111209709143
0,636231111209874247
0,636231111210039511
0,636231111210209610
0,636231111210374693
0,636231111210539794
1,636231111210709884
1,636231111210874806
0,636231111211044888
0,636231111211210163
0,636231111211375089
0,636231111211545380
0,636231111211710451
0,636231111211875364
0,636231111212045446
0,636231111212210550
0,636231111212380632
0,636231111212545908
0,636231111212710834
0,636231111212880929
0,636231111213046196
0,636231111213211096
0,636231111213381404
0,636231111213546283
0,636231111213716377
0,636231111213881692
0,636231111214046741
0,636231111214216836
0,636231111214381761
0,636231111214546841
0,636231111214717115
0,636231111214882211
0,636231111215052139
0,636231111215217219
0,636231111215382306
0,636231111215552418
0,636231111215717677
0,636231111215882611
0,636231111216052864
0,636231111216217956
0,636231111216387880
0,636231111216552959
0,636231111216718056
0,636231111216888155
0,636231111217053422
0,636231111217223342
0,636231111217388442
0,636231111217553727
0,636231111217723638
0,636231111217888704
0,636231111218053796
0,636231111218224075
0,636231111218388983
0,636231111218559078
1,636231111218724183
1,636231111218889262
0,636231111219059361
0,636231111219224466
0,636231111219389537
0,636231111219559850
0,636231111219724955
0,636231111219894823
0,636231111220060108
0,636231111220225007
0,636231111220395299
0,636231111220560382
0,636231111220725466
0,636231111220895578
0,636231111221060486
0,636231111221230572
0,636231111221395664
0,636231111221560774
0,636231111221730843
0,636231111221895935
0,636231111222061044
0,636231111222231139
0,636231111222396218
0,636231111222566309
0,636231111222731593
0,636231111222896501
0,636231111223066784
0,636231111223231684
0,636231111223396780
0,636231111223566884
0,636231111223731967
0,636231111223902058
0,636231111224067355
0,636231111224232259
0,636231111224402337
0,636231111224567613
0,636231111224732709
0,636231111224902629
0,636231111225067888
0,636231111225237807
0,636231111225402899
0,636231111225568013
0,636231111225738086
0,636231111225903174
0,636231111226068279
1,636231111226238361
1,636231111226403637
0,636231111226573552
0,636231111226738819
0,636231111226903920
0,636231111227074015
0,636231111227238923
0,636231111227404007
0,636231111227574110
0,636231111227739219
0,636231111227909297
0,636231111228074569
0,636231111228239656
0,636231111228409576
0,636231111228574856
0,636231111228744763
0,636231111228910035
0,636231111229074938
0,636231111229245157
0,636231111229410314
0,636231111229575235
0,636231111229745500
0,636231111229910422
0,636231111230080504
0,636231111230245608
0,636231111230410893
0,636231111230580975
0,636231111230745875
0,636231111230911151
0,636231111231081066
0,636231111231246149
0,636231111231416248
0,636231111231581353
0,636231111231746454
0,636231111231916545
0,636231111232081624
0,636231111232246724
0,636231111232416802
0,636231111232581916
0,636231111232751993
0,636231111232917103
0,636231111233082195
0,636231111233252290
0,636231111233417377
0,636231111233582457
0,636231111233752569
1,636231111233917648
1,636231111234087743
0,636231111234252830
0,636231111234418128
0,636231111234588017
0,636231111234753293
0,636231111234923217
0,636231111235088292
0,636231111235253482
0,636231111235423573
0,636231111235588652
0,636231111235753928
0,636231111235923861
0,636231111236088940
0,636231111236254036
0,636231111236424118
0,636231111236589210
0,636231111236759305
0,636231111236924410
0,636231111237089665
0,636231111237259768
0,636231111237424676
0,636231111237589764
0,636231111237759859
0,636231111237924968
0,636231111238095054
0,636231111238260142
0,636231111238425444
0,636231111238595427
0,636231111238760434
0,636231111238925697
0,636231111239095788
0,636231111239260700
0,636231111239430791
0,636231111239596071
0,636231111239760975
0,636231111239931254
0,636231111240096170
0,636231111240261262
0,636231111240431537
0,636231111240596441
0,636231111240766536
0,636231111240931649
0,636231111241096720
0,636231111241267007
0,636231111241432091
0,636231111241602014
1,636231111241767098
1,636231111241932378
0,636231111242102285
0,636231111242267377
0,636231111242432482
0,636231111242612570
0,636231111242767665
0,636231111242937747
0,636231111243103023
0,636231111243267944
0,636231111243438051
0,636231111243603118
0,636231111243768227
0,636231111243938497
0,636231111244103581
0,636231111244273504
0,636231111244438592
0,636231111244603676
0,636231111244773788
0,636231111244938863
0,636231111245104139
0,636231111245274233
0,636231111245439167
0,636231111245609236
0,636231111245774521
0,636231111245939421
0,636231111246109520
0,636231111246274608
0,636231111246439725
0,636231111246609803
0,636231111246774899
0,636231111246944986
0,636231111247110257
0,636231111247275354
0,636231111247445277
0,636231111247610536
0,636231111247775466
0,636231111247945728
0,636231111248110820
0,636231111248280820
0,636231111248446002
0,636231111248611107
0,636231111248781040
0,636231111248946110
0,636231111249116197
0,636231111249281468
0,636231111249446556
0,636231111249616471
1,636231111249781568
1,636231111249946655
0,636231111250116755
0,636231111250281859
0,636231111250447118
0,636231111250617034
0,636231111250782126
0,636231111250952220
0,636231111251117381
0,636231111251282631
0,636231111251452692
0,636231111251617771
0,636231111251782867
0,636231111251952958
0,636231111252118050
0,636231111252287978
0,636231111252453237
0,636231111252618167
0,636231111252788249
0,636231111252953345
0,636231111253123431
0,636231111253288523
0,636231111253453624
0,636231111253623710
0,636231111253788991
0,636231111253954074
0,636231111254124002
0,636231111254289099
0,636231111254459172
0,636231111254624448
0,636231111254789360
0,636231111254959451
0,636231111255124539
0,636231111255289823
0,636231111255459747
0,636231111255624822
0,636231111255794921
0,636231111255960197
0,636231111256125105
0,636231111256295333
0,636231111256460284
0,636231111256625564
0,636231111256795475
0,636231111256960593
0,636231111257130662
1,636231111257295754
1,636231111257460846
0,636231111257631112
0,636231111257796213
0,636231111257961317
0,636231111258131404
0,636231111258296312
0,636231111258466424
0,636231111258631683
0,636231111258796779
0,636231111258966703
0,636231111259131791
0,636231111259297058
0,636231111259467132
0,636231111259632074
0,636231111259802156
0,636231111259967240
0,636231111260132353
0,636231111260302452
0,636231111260467544
0,636231111260632803
0,636231111260802906
0,636231111260967823
0,636231111261137901
0,636231111261303006
0,636231111261468286
0,636231111261638377
0,636231111261803289
0,636231111261973363
0,636231111262138450
0,636231111262303547
0,636231111262473642
0,636231111262638922
0,636231111262803847
0,636231111262973921
0,636231111263139021
0,636231111263309112
0,636231111263474221
0,636231111263639309
0,636231111263809387
0,636231111263974487
0,636231111264139575
0,636231111264309674
0,636231111264474753
0,636231111264644857
0,636231111264810137
0,636231111264975220
1,636231111265145217
1,636231111265310245
0,636231111265475316
0,636231111265645603
0,636231111265810507
0,636231111265980615
0,636231111266145689
0,636231111266310794
0,636231111266480881
0,636231111266646157
0,636231111266811249
0,636231111266981339
0,636231111267146252
0,636231111267316351
0,636231111267481434
0,636231111267646526
0,636231111267816801
0,636231111267981713
0,636231111268146805
0,636231111268316900
0,636231111268482001
0,636231111268652104
0,636231111268817363
0,636231111268982276
0,636231111269152567
0,636231111269317463
0,636231111269482568
0,636231111269652833
0,636231111269817754
0,636231111269987836
0,636231111270153138
0,636231111270318021
0,636231111270488304
0,636231111270653387
0,636231111270818479
0,636231111270988390
0,636231111271153495
0,636231111271323581
0,636231111271488695
0,636231111271653761
0,636231111271824044
0,636231111271989132
0,636231111272154237
0,636231111272324319
0,636231111272489415
0,636231111272659326
0,636231111272824431
1,636231111272989523
1,636231111273159793
0,636231111273324881
0,636231111273489973
0,636231111273659889
0,636231111273825156
0,636231111273995071
0,636231111274160172
0,636231111274325431
0,636231111274495406
0,636231111274660455
0,636231111274830533
0,636231111274995638
0,636231111275160901
0,636231111275330829
0,636231111275496092
0,636231111275661013
0,636231111275831095
0,636231111275996367
0,636231111276161459
0,636231111276331387
0,636231111276496466
0,636231111276666553
0,636231111276831649
0,636231111276996929
0,636231111277167028
0,636231111277332112
0,636231111277502027
0,636231111277667132
0,636231111277832224
0,636231111278002306
0,636231111278167394
0,636231111278332854
0,636231111278502786
0,636231111278667887
0,636231111278837772
0,636231111279002860
0,636231111279167952
0,636231111279338068
0,636231111279503336
0,636231111279668248
0,636231111279838330
0,636231111280003426
0,636231111280173534
0,636231111280338733
0,636231111280503876
0,636231111280673809
0,636231111280839068
1,636231111281004168
1,636231111281174075
0,636231111281339355
0,636231111281509262
0,636231111281674367
0,636231111281839446
0,636231111282009567
0,636231111282174633
0,636231111282339909
0,636231111282510017
0,636231111282675130
0,636231111282845003
0,636231111283010090
0,636231111283175191
0,636231111283345316
0,636231111283510374
0,636231111283675650
0,636231111283845749
0,636231111284010661
0,636231111284180747
0,636231111284346066
0,636231111284511103
0,636231111284681031
0,636231111284846136
0,636231111285011223
0,636231111285181498
0,636231111285346415
0,636231111285516497
0,636231111285681584
0,636231111285846677
0,636231111286016784
0,636231111286181876
0,636231111286346960
0,636231111286517268
0,636231111286682352
0,636231111286852237
0,636231111287017513
0,636231111287182421
0,636231111287352542
0,636231111287517621
0,636231111287687703
0,636231111287852800
0,636231111288018097
1,636231111288187987
1,636231111288353079
0,636231111288518171
0,636231111288688471
0,636231111288853366
0,636231111289023453
0,636231111289188557
0,636231111289353649
0,636231111289523732
0,636231111289688819
0,636231111289854100
0,636231111290024006
0,636231111290189282
0,636231111290359197
0,636231111290524285
0,636231111290689394
0,636231111290859545
0,636231111291024757
0,636231111291189673
0,636231111291359764
0,636231111291525027
0,636231111291694942
0,636231111291860218
0,636231111292025131
0,636231111292195221
0,636231111292360309
0,636231111292530404
0,636231111292695517
0,636231111292860802
0,636231111293030687
0,636231111293195959
0,636231111293361081
0,636231111293530966
0,636231111293696054
0,636231111293861334
0,636231111294031245
0,636231111294196526
0,636231111294366432
0,636231111294531537
0,636231111294696633
0,636231111294866929
0,636231111295031812
0,636231111295196900
0,636231111295366982
0,636231111295532078
0,636231111295702177
1,636231111295867449
1,636231111296032361
0,636231111296202657
0,636231111296367548
0,636231111296532640
0,636231111296702752
0,636231111296867840
0,636231111297037922
0,636231111297203014
0,636231111297368294
0,636231111297538197
0,636231111297703477
0,636231111297873388
0,636231111298038476
0,636231111298203756
0,636231111298373667
0,636231111298538939
0,636231111298703847
0,636231111298874147
0,636231111299039051
0,636231111299209146
0,636231111299374246
0,636231111299539326
0,636231111299709412
0,636231111299874688
0,636231111300039776
0,636231111300209871
0,636231111300374796
0,636231111300544878
0,636231111300709974
0,636231111300875058
0,636231111301045153
0,636231111301210450
0,636231111301375563
0,636231111301545449
0,636231111301710708
0,636231111301880619
0,636231111302045728
0,636231111302210807
0,636231111302380898
0,636231111302546178
0,636231111302711099
0,636231111302881202
0,636231111303046264
0,636231111303216364
0,636231111303381468
0,636231111303546740
1,636231111303716647
1,636231111303881923
0,636231111304047019
0,636231111304217101
0,636231111304382206
0,636231111304552108
0,636231111304717380
0,636231111304882310
0,636231111305052392
0,636231111305217480
0,636231111305382593
0,636231111305552679
0,636231111305717947
0,636231111305887853
0,636231111306052941
0,636231111306218234
0,636231111306388325
0,636231111306553413
0,636231111306718505
0,636231111306888433
0,636231111307053521
0,636231111307223615
0,636231111307388874
0,636231111307554009
0,636231111307723894
0,636231111307889153
0,636231111308059069
0,636231111308224173
0,636231111308389270
0,636231111308559373
0,636231111308724619
0,636231111308889544
0,636231111309059644
0,636231111309224731
0,636231111309394809
0,636231111309560085
0,636231111309725010
0,636231111309895088
0,636231111310060197
0,636231111310225456
0,636231111310395551
0,636231111310560656
0,636231111310730558
0,636231111310895830
0,636231111311060811
0,636231111311231026
1,636231111311395934
1,636231111311561205
0,636231111311731317
0,636231111311896217
0,636231111312066299
0,636231111312231575
0,636231111312396676
0,636231111312566578
0,636231111312731867
0,636231111312896762
0,636231111313067041
0,636231111313232133
0,636231111313402053
0,636231111313567136
0,636231111313732250
0,636231111313902541
0,636231111314067419
0,636231111314232695
0,636231111314402786
0,636231111314567912
0,636231111314737806
0,636231111314902885
0,636231111315067982
0,636231111315238265
0,636231111315403164
0,636231111315568273
0,636231111315738355
0,636231111315903623
0,636231111316073534
0,636231111316238622
0,636231111316403718
0,636231111316573830
0,636231111316738909
0,636231111316904181
0,636231111317074096
0,636231111317239184
0,636231111317409283
0,636231111317574375
0,636231111317739647
0,636231111317909746
0,636231111318074676
0,636231111318239934
0,636231111318410025
1,636231111318574933
1,636231111318745028
0,636231111318910116
0,636231111319075225
0,636231111319245491
0,636231111319410412
0,636231111319580490
0,636231111319745582
0,636231111319910682
0,636231111320080786
0,636231111320245878
0,636231111320411132
0,636231111320581108
0,636231111320746328
0,636231111320911240
0,636231111321081511
0,636231111321246603
0,636231111321416514
0,636231111321581610
0,636231111321746715
0,636231111321916989
0,636231111322081902
0,636231111322247156
0,636231111322417080
0,636231111322582194
0,636231111322752259
0,636231111322917368
0,636231111323082631
0,636231111323252721
0,636231111323417630
0,636231111323587724
0,636231111323752817
0,636231111323917913
0,636231111324088196
0,636231111324253113
0,636231111324418205
0,636231111324588300
0,636231111324753387
0,636231111324923474
0,636231111325088754
0,636231111325253876
0,636231111325423937
0,636231111325589024
0,636231111325753950
1,636231111325924211
1,636231111326089303
0,636231111326259231
0,636231111326424324
0,636231111326589403
0,636231111326759724
0,636231111326924799
0,636231111327089677
0,636231111327259768
0,636231111327425048
0,636231111327594976
0,636231111327760252
0,636231111327925336
0,636231111328095255
0,636231111328260352
0,636231111328425422
0,636231111328595522
0,636231111328760819
0,636231111328930708
0,636231111329095993
0,636231111329261085
0,636231111329430992
0,636231111329596259
0,636231111329761360
0,636231111329931450
0,636231111330096371
0,636231111330266453
0,636231111330431541
0,636231111330596817
0,636231111330766805
0,636231111330931824
0,636231111331097100
0,636231111331267011
0,636231111331432279
0,636231111331602198
0,636231111331767299
0,636231111331932566
0,636231111332102473
0,636231111332267569
0,636231111332432670
0,636231111332602756
0,636231111332767844
0,636231111332937943
0,636231111333103035
0,636231111333268127
1,636231111333438440
1,636231111333603310
0,636231111333768402
0,636231111333938685
0,636231111334103773
0,636231111334273688
0,636231111334438793
0,636231111334604052
0,636231111334773980
0,636231111334939243
0,636231111335109154
0,636231111335274246
0,636231111335439330
0,636231111335609433
0,636231111335774525
0,636231111335939630
0,636231111336109721
0,636231111336274800
0,636231111336444899
0,636231111336610000
0,636231111336775096
0,636231111336945191
0,636231111337110266
0,636231111337275375
0,636231111337445470
0,636231111337610562
0,636231111337780657
0,636231111337945916
0,636231111338110841
0,636231111338281107
0,636231111338446195
0,636231111338611287
0,636231111338781382
0,636231111338946311
0,636231111339116389
0,636231111339281477
0,636231111339446753
0,636231111339616856
0,636231111339781773
0,636231111339946861
0,636231111340116964
0,636231111340282039
0,636231111340452130
1,636231111340617222
1,636231111340782314
0,636231111340952426
0,636231111341117518
0,636231111341282610
0,636231111341452893
0,636231111341617775
0,636231111341787875
0,636231111341953150
0,636231111342118084
0,636231111342288346
0,636231111342453429
0,636231111342618526
0,636231111342788625
0,636231111342953525
0,636231111343123624
0,636231111343288900
0,636231111343454009
0,636231111343623898
0,636231111343788986
0,636231111343954271
0,636231111344124190
0,636231111344289453
0,636231111344459364
0,636231111344624645
0,636231111344789549
0,636231111344959648
0,636231111345124744
0,636231111345289845
0,636231111345459927
0,636231111345625203
0,636231111345795109
0,636231111345960385
0,636231111346125486
0,636231111346295405
0,636231111346460664
0,636231111346630580
0,636231111346795684
0,636231111346960952
0,636231111347130859
1,636231111347295959
1,636231111347461227
0,636231111347631133
0,636231111347796409
0,636231111347961317
0,636231111348131429
0,636231111348296714
0,636231111348466599
0,636231111348631845
0,636231111348796967
0,636231111348966882
0,636231111349132158
0,636231111349302065
0,636231111349467170
0,636231111349632266
0,636231111349802348
0,636231111349967440
0,636231111350132528
0,636231111350302811
0,636231111350467741
0,636231111350637849
0,636231111350803129
0,636231111350968225
0,636231111351138123
0,636231111351303215
0,636231111351468312
0,636231111351638419
0,636231111351803503
0,636231111351973593
0,636231111352138869
0,636231111352303987
0,636231111352474056
0,636231111352639148
0,636231111352804236
0,636231111352974152
0,636231111353139248
0,636231111353309338
0,636231111353474431
0,636231111353639634
0,636231111353809630
0,636231111353974727
0,636231111354139814
0,636231111354309909
0,636231111354474989
1,636231111354645088
1,636231111354810355
0,636231111354975451
0,636231111355145362
0,636231111355310454
0,636231111355475559
0,636231111355645658
0,636231111355810917
0,636231111355980828
0,636231111356145942
0,636231111356311008
0,636231111356481124
0,636231111356646212
0,636231111356816299
0,636231111356981386
0,636231111357146662
0,636231111357316637
0,636231111357481670
0,636231111357646783
0,636231111357817045
0,636231111357982128
0,636231111358152039
0,636231111358317136
0,636231111358482407
0,636231111358652421
0,636231111358817406
0,636231111358982686
0,636231111359152610
0,636231111359317694
0,636231111359487784
0,636231111359652898
0,636231111359817985
0,636231111359988076
0,636231111360153159
0,636231111360318247
0,636231111360488530
0,636231111360653614
0,636231111360823568
0,636231111360988638
0,636231111361153897
0,636231111361323992
0,636231111361489084
0,636231111361654009
0,636231111361824091
0,636231111361989183
1,636231111362159278
1,636231111362324366
0,636231111362489651
0,636231111362659745
0,636231111362824658
0,636231111362989921
0,636231111363160016
0,636231111363325112
0,636231111363495019
0,636231111363660299
0,636231111363825203
0,636231111363995298
0,636231111364160394
0,636231111364325486
0,636231111364495581
0,636231111364660669
0,636231111364830764
0,636231111364996044
0,636231111365160961
0,636231111365331047
0,636231111365496135
0,636231111365661231
0,636231111365831472
0,636231111365996440
0,636231111366166509
0,636231111366331815
0,636231111366496898
0,636231111366666792
0,636231111366831880
0,636231111366996985
0,636231111367167071
0,636231111367332172
0,636231111367502446
0,636231111367667346
0,636231111367832652
0,636231111368002537
0,636231111368167633
0,636231111368332901
0,636231111368502833
0,636231111368667908
0,636231111368838003
0,636231111369003275
0,636231111369168191
0,636231111369338474
0,636231111369503383
1,636231111369668466
1,636231111369838741
0,636231111370003653
0,636231111370173744
0,636231111370339032
0,636231111370503936
0,636231111370674027
0,636231111370839299
0,636231111371004399
0,636231111371174323
0,636231111371339411
0,636231111371509493
0,636231111371674602
0,636231111371839861
0,636231111372009956
0,636231111372174860
0,636231111372344959
0,636231111372510047
0,636231111372675348
0,636231111372845251
0,636231111373010531
0,636231111373175619
0,636231111373345530
0,636231111373510609
0,636231111373680699
0,636231111373845791
0,636231111374010892
0,636231111374180987
0,636231111374346259
0,636231111374511351
0,636231111374681274
0,636231111374846367
0,636231111375016444
0,636231111375181725
0,636231111375346628
0,636231111375516745
0,636231111375681815
0,636231111375851910
0,636231111376017190
0,636231111376182107
0,636231111376352194
0,636231111376517286
0,636231111376682373
0,636231111376852498
1,636231111377017744
1,636231111377182652
0,636231111377352764
0,636231111377517861
0,636231111377687938
0,636231111377853210
0,636231111378018311
0,636231111378188294
0,636231111378353322
0,636231111378523404
0,636231111378688710
0,636231111378853794
0,636231111379023722
0,636231111379188810
0,636231111379353906
0,636231111379524082
0,636231111379689089
0,636231111379854181
0,636231111380024293
0,636231111380189552
0,636231111380359467
0,636231111380524559
0,636231111380689660
0,636231111380859746
0,636231111381025039
0,636231111381189930
0,636231111381360042
0,636231111381525301
0,636231111381695207
0,636231111381860304
0,636231111382025396
0,636231111382195675
0,636231111382360600
0,636231111382530691
0,636231111382695761
0,636231111382861046
0,636231111383030952
0,636231111383196224
0,636231111383361141
0,636231111383531236
0,636231111383696537
0,636231111383861599
0,636231111384031699
0,636231111384196602
0,636231111384366714
0,636231111384531986
1,636231111384696881
1,636231111384866985
0,636231111385032086
0,636231111385202168
0,636231111385367469
0,636231111385532352
0,636231111385702545
0,636231111385867539
0,636231111386032622
0,636231111386202726
0,636231111386367813
0,636231111386537908
0,636231111386703005
0,636231111386868097
0,636231111387043190
0,636231111387203279
0,636231111387368388
0,636231111387538488
0,636231111387703571
0,636231111387873653
0,636231111388038762
0,636231111388203837
0,636231111388374120
0,636231111388539046
0,636231111388704125
0,636231111388874211
0,636231111389039303
0,636231111389209402
0,636231111389374695
0,636231111389539792
0,636231111389709780
0,636231111389874782
0,636231111390040054
0,636231111390210149
0,636231111390375228
0,636231111390545143
0,636231111390710231
0,636231111390875340
0,636231111391045422
0,636231111391210527
0,636231111391375606
0,636231111391545906
0,636231111391710998
0,636231111391880888
0,636231111392046172
0,636231111392211256
0,636231111392381163
0,636231111392546443
0,636231111392921477
0,636231111392931491
1,636231111393046726
1,636231111393216637
0,636231111393381734
0,636231111393546826
0,636231111393717104
0,636231111393882218
0,636231111394052103
0,636231111394217379
0,636231111394382492
0,636231111394552463
0,636231111394717491
0,636231111394882562
0,636231111395052845
0,636231111395217933
0,636231111395387848
0,636231111395552936
0,636231111395718045
0,636231111395888123
0,636231111396053236
0,636231111396218311
0,636231111396388397
0,636231111396553490
0,636231111396723589
0,636231111396888860
0,636231111397053794
0,636231111397224022
0,636231111397388960
0,636231111397554056
0,636231111397724339
0,636231111397889448
0,636231111398059334
0,636231111398224443
0,636231111398389539
0,636231111398559613
0,636231111398724889
0,636231111398889814
0,636231111399060080
0,636231111399225001
0,636231111399395091
0,636231111399560175
0,636231111399725284
0,636231111399895379
0,636231111400060471
0,636231111400225726
0,636231111400395820
0,636231111400560729
0,636231111400730836
0,636231111400896095
0,636231111401061020
0,636231111401231102
0,636231111401396383
0,636231111401561304
0,636231111401731399
1,636231111401896491
1,636231111402066568
0,636231111402231883
0,636231111402396753
0,636231111402566865
0,636231111402732132
0,636231111402902034
0,636231111403067144
0,636231111403232231
0,636231111403402313
0,636231111403567405
0,636231111403732686
0,636231111403902605
0,636231111404067702
0,636231111404237779
0,636231111404402888
0,636231111404568152
0,636231111404738075
0,636231111404903339
0,636231111405068431
0,636231111405238525
0,636231111405403429
0,636231111405573524
0,636231111405738796
0,636231111405903717
0,636231111406073808
0,636231111406239101
0,636231111406404009
0,636231111406574275
0,636231111406739354
0,636231111406909269
0,636231111407074366
0,636231111407239641
0,636231111407409552
0,636231111407574645
0,636231111407739920
0,636231111407909831
0,636231111408074928
0,636231111408245018
0,636231111408410324
0,636231111408575412
0,636231111408745293
0,636231111408910569
0,636231111409075665
0,636231111409245760
0,636231111409410681
0,636231111409580759
0,636231111409746035
0,636231111409910969
0,636231111410081064
0,636231111410246318
0,636231111410411244
1,636231111410581505
1,636231111410746593
0,636231111410916504
0,636231111411081596
0,636231111411246889
0,636231111411416800
0,636231111411581871
0,636231111411747155
0,636231111411917250
0,636231111412082175
0,636231111412252253
0,636231111412417354
0,636231111412582429
0,636231111412752528
0,636231111412917808
0,636231111413082721
0,636231111413252991
0,636231111413417899
0,636231111413587998
0,636231111413753112
0,636231111413918182
0,636231111414088298
0,636231111414253549
0,636231111414418461
0,636231111414588569
0,636231111414753849
0,636231111414923743
0,636231111415088848
0,636231111415253923
0,636231111415424214
0,636231111415589131
0,636231111415759205
0,636231111415924293
0,636231111416089568
0,636231111416259484
0,636231111416424760
0,636231111416589685
0,636231111416759767
0,636231111416924872
0,636231111417094950
0,636231111417260046
0,636231111417425151
0,636231111417595229
0,636231111417760334
0,636231111417925592
0,636231111418095512
0,636231111418260604
0,636231111418425696
0,636231111418595787
1,636231111418760896
1,636231111418930991
0,636231111419096070
0,636231111419261179
0,636231111419431265
0,636231111419596353
0,636231111419766444
0,636231111419931544
0,636231111420096820
0,636231111420266719
0,636231111420431994
0,636231111420596937
0,636231111420767002
0,636231111420932273
0,636231111421102184
0,636231111421267465
0,636231111421432386
0,636231111421602463
0,636231111421767744
0,636231111421932831
0,636231111422102922
0,636231111422267852
0,636231111422437929
0,636231111422603201
0,636231111422768148
0,636231111422938397
0,636231111423103480
0,636231111423268572
0,636231111423438676
0,636231111423603575
0,636231111423773691
0,636231111423938950
0,636231111424103871
0,636231111424274137
0,636231111424439041
0,636231111424604321
0,636231111424774245
0,636231111424939337
0,636231111425109424
0,636231111425274717
0,636231111425439603
0,636231111425609784
0,636231111425774974
0,636231111425940062
0,636231111426110165
0,636231111426275086
0,636231111426445164
0,636231111426610461
0,636231111426775532
1,636231111426945640
1,636231111427110723
0,636231111427275811
0,636231111427445739
0,636231111427610810
0,636231111427780909
0,636231111427946181
0,636231111428111098
0,636231111428281376
0,636231111428446464
0,636231111428616375
0,636231111428781651
0,636231111428946559
0,636231111429116650
0,636231111429281759
0,636231111429446842
0,636231111429617130
0,636231111429782042
0,636231111429947117
0,636231111430117396
0,636231111430282317
0,636231111430452587
0,636231111430617675
0,636231111430782763
0,636231111430952866
0,636231111431117783
0,636231111431287865
0,636231111431452961
0,636231111431618254
0,636231111431788208
0,636231111431953253
0,636231111432118516
0,636231111432288611
0,636231111432453524
0,636231111432623610
0,636231111432788882
0,636231111432953982
0,636231111433124073
0,636231111433288994
0,636231111433454073
0,636231111433624347
0,636231111433789444
0,636231111433959351
0,636231111434124631
0,636231111434289556
0,636231111434459698
0,636231111434624730
0,636231111434790006
0,636231111434959930
1,636231111435125005
1,636231111435295100
0,636231111435460205
0,636231111435625468
0,636231111435795494
0,636231111435960659
0,636231111436125584
0,636231111436295842
0,636231111436460942
0,636231111436630845
0,636231111436796121
0,636231111436961208
0,636231111437131312
0,636231111437296229
0,636231111437461321
0,636231111437631428
0,636231111437796679
0,636231111437966590
0,636231111438131878
0,636231111438296774
0,636231111438466886
0,636231111438632140
0,636231111438802060
0,636231111438967340
0,636231111439132252
0,636231111439302369
0,636231111439467435
0,636231111439632519
0,636231111439802639
0,636231111439967706
0,636231111440132982
0,636231111440302897
0,636231111440468168
0,636231111440638084
0,636231111440803189
0,636231111440968447
0,636231111441138542
0,636231111441303455
0,636231111441473550
0,636231111441638834
0,636231111441803734
0,636231111441973833
0,636231111442138921
0,636231111442304192
0,636231111442474292
0,636231111442639217
1,636231111442809290
1,636231111442974571
0,636231111443139658
0,636231111443309569
0,636231111443474845
0,636231111443639771
0,636231111443809853
0,636231111443974940
0,636231111444145035
0,636231111444310345
0,636231111444475219
0,636231111444645460
0,636231111444810423
0,636231111444975682
0,636231111445145773
0,636231111445310690
0,636231111445480784
0,636231111445646060
0,636231111445810973
0,636231111445981072
0,636231111446146173
0,636231111446311256
0,636231111446481334
0,636231111446646435
0,636231111446816525
0,636231111446981613
0,636231111447146897
0,636231111447316988
0,636231111447481913
0,636231111447647253
0,636231111447817083
0,636231111447982363
0,636231111448152283
0,636231111448317559
0,636231111448482467
0,636231111448652545
0,636231111448817658
0,636231111448982755
0,636231111449153012
0,636231111449318104
0,636231111449488019
0,636231111449653107
0,636231111449818387
1,636231111449988307
1,636231111450153399
0,636231111450318474
0,636231111450488586
0,636231111450653665
0,636231111450823764
0,636231111450990451
0,636231111451154025
0,636231111451323919
0,636231111451491350
0,636231111451658401
0,636231111451825609
0,636231111451992425
0,636231111452156448
0,636231111452324062
0,636231111452493144
0,636231111452660164
0,636231111452827095
0,636231111452994069
0,636231111453161688
0,636231111453328088
0,636231111453491145
0,636231111453662446
0,636231111453829586
0,636231111453995422
0,636231111454163546
0,636231111454329664
0,636231111454497488
0,636231111454662217
0,636231111454830849
0,636231111454998413
0,636231111455164796
0,636231111455331778
0,636231111455499329
0,636231111455666444
0,636231111455831360
0,636231111455999672
0,636231111456165213
0,636231111456334183
0,636231111456500618
0,636231111456667510
0,636231111456835125
0,636231111457001526
0,636231111457169560
1,636231111457335485
1,636231111457503032
0,636231111457670001
0,636231111457837197
0,636231111458003418
0,636231111458171708
0,636231111458334671
0,636231111458504779
0,636231111458671265
0,636231111458837909
0,636231111459005147
0,636231111459172779
0,636231111459337542
0,636231111459506718
0,636231111459671566
0,636231111459840669
0,636231111460006171
0,636231111460174458
0,636231111460341029
0,636231111460506049
0,636231111460675536
0,636231111460843544
0,636231111461009487
0,636231111461176469
0,636231111461342926
0,636231111461510416
0,636231111461677390
0,636231111461840853
0,636231111462010760
0,636231111462177780
0,636231111462344629
0,636231111462512300
0,636231111462676999
0,636231111462844511
0,636231111463013212
0,636231111463179287
0,636231111463346299
0,636231111463511404
0,636231111463681486
0,636231111463846591
0,636231111464011854
0,636231111464182111
0,636231111464347191
0,636231111464512296
0,636231111464682399
0,636231111464847470
0,636231111465012558
0,636231111465182674
0,636231111465347753
0,636231111465517839
1,636231111465682957
1,636231111465848023
0,636231111466018140
0,636231111466183407
0,636231111466348307
0,636231111466518402
0,636231111466683494
0,636231111466853597
0,636231111467018864
0,636231111467183773
0,636231111467353885
0,636231111467518985
0,636231111467684073
0,636231111467854147
0,636231111468019239
0,636231111468189333
0,636231111468354455
0,636231111468519518
0,636231111468689634
0,636231111468854717
0,636231111469024804
0,636231111469189909
0,636231111469354979
0,636231111469525087
0,636231111469690170
0,636231111469855271
0,636231111470025366
0,636231111470190449
0,636231111470360540
0,636231111470525636
0,636231111470690737
0,636231111470860845
0,636231111471025915
0,636231111471191007
0,636231111471361102
0,636231111471526203
0,636231111471696294
0,636231111471861390
0,636231111472026473
0,636231111472196581
0,636231111472361660
0,636231111472526757
0,636231111472696847
0,636231111472862123
0,636231111473032034
0,636231111473197139
0,636231111473362235
0,636231111473532343
0,636231111473697401
0,636231111473862493
0,636231111474032772
0,636231111474197697
1,636231111474367792
1,636231111474533051
0,636231111474697963
0,636231111474868242
0,636231111475033330
0,636231111475198242
0,636231111475368517
0,636231111475533463
0,636231111475703520
0,636231111475868817
0,636231111476033931
0,636231111476203987
0,636231111476369079
0,636231111476534167
0,636231111476704082
0,636231111476869311
0,636231111477039265
0,636231111477204357
0,636231111477369637
0,636231111477539599
0,636231111477704640
0,636231111477869745
0,636231111478039844
0,636231111478205103
0,636231111478375014
0,636231111478540110
0,636231111478705211
0,636231111478875383
0,636231111479040565
0,636231111479205665
0,636231111479375777
0,636231111479540848
0,636231111479710759
0,636231111479875860
0,636231111480040939
0,636231111480211235
0,636231111480376126
0,636231111480546221
0,636231111480711313
0,636231111480876593
0,636231111481046521
0,636231111481211592
0,636231111481376868
0,636231111481546783
0,636231111481711892
0,636231111481881965
0,636231111482047066
0,636231111482212167
0,636231111482382262
0,636231111482547375
0,636231111482712617
1,636231111482882720
1,636231111483047624
0,636231111483217710
0,636231111483382995
0,636231111483548091
0,636231111483718011
0,636231111483883099
0,636231111484048191
0,636231111484218478
0,636231111484383549
0,636231111484553455
0,636231111484718753
0,636231111484883669
0,636231111485053739
0,636231111485218831
0,636231111485383923
0,636231111485554018
0,636231111485719110
0,636231111485889209
0,636231111486054297
0,636231111486219590
0,636231111486389513
0,636231111486554588
0,636231111486724666
0,636231111486889780
0,636231111487054863
0,636231111487224945
0,636231111487390046
0,636231111487555322
0,636231111487725293
0,636231111487890316
0,636231111488055413
0,636231111488225687
0,636231111488390612
0,636231111488560699
0,636231111488725970
0,636231111488890879
0,636231111489060986
0,636231111489226087
0,636231111489391337
0,636231111489561265
0,636231111489726340
0,636231111489896439
0,636231111490061531
0,636231111490226624
0,636231111490396740
0,636231111490561828
0,636231111490726915
1,636231111490897010
1,636231111491062089
0,636231111491232180
0,636231111491397276
0,636231111491562377
0,636231111491732468
0,636231111491897555
0,636231111492067650
0,636231111492232759
0,636231111492397834
0,636231111492567925
0,636231111492733026
0,636231111492898113
0,636231111493068213
0,636231111493233296
0,636231111493403395
0,636231111493568483
0,636231111493733579
0,636231111493903670
0,636231111494068762
0,636231111494233854
0,636231111494403949
0,636231111494569045
0,636231111494734142
0,636231111494904232
0,636231111495069324
0,636231111495239415
0,636231111495404515
0,636231111495569599
0,636231111495739694
0,636231111495904794
0,636231111496074885
0,636231111496239977
0,636231111496405069
0,636231111496575160
0,636231111496740256
0,636231111496905352
0,636231111497075447
0,636231111497240539
0,636231111497410630
0,636231111497575726
0,636231111497740827
0,636231111497910909
0,636231111498076022
0,636231111498241277
0,636231111498411184
0,636231111498576276
0,636231111498746375
0,636231111498911651
0,636231111499076769
0,636231111499246671
0,636231111499411750
0,636231111499576838
0,636231111499746933
1,636231111499912034
1,636231111500082120
0,636231111500247208
0,636231111500412330
0,636231111500582412
0,636231111500747487
0,636231111500912596
0,636231111501082674
0,636231111501247804
0,636231111501417865
0,636231111501582953
0,636231111501748062
0,636231111501918165
0,636231111502083232
0,636231111502248345
0,636231111502418427
0,636231111502583523
0,636231111502753610
0,636231111502918706
0,636231111503083807
0,636231111503253893
0,636231111503418981
0,636231111503584069
0,636231111503754163
0,636231111503919264
0,636231111504089350
0,636231111504254447
0,636231111504419740
0,636231111504589638
0,636231111504754734
0,636231111504924816
0,636231111505089908
0,636231111505255009
0,636231111505425095
0,636231111505590204
0,636231111505755279
0,636231111505925387
0,636231111506090471
0,636231111506260561
0,636231111506425841
0,636231111506590771
0,636231111506760866
0,636231111506925949
0,636231111507091037
0,636231111507261124
0,636231111507426216
0,636231111507596310
0,636231111507761415
0,636231111507926499
0,636231111508096598
0,636231111508261694
0,636231111508426791
0,636231111508596868
0,636231111508761961
0,636231111508932051
0,636231111509097143
0,636231111509262240
0,636231111509432339
0,636231111509597426
1,636231111509762519
1,636231111509932613
0,636231111510097701
0,636231111510267800
0,636231111510432897
0,636231111510597989
0,636231111510768238
0,636231111510933330
0,636231111511098430
0,636231111511268512
0,636231111511433621
0,636231111511603703
0,636231111511768804
0,636231111511933892
0,636231111512104171
0,636231111512269070
0,636231111512434162
0,636231111512604445
0,636231111512769537
0,636231111512939448
0,636231111513104553
0,636231111513269825
0,636231111513439732
0,636231111513605008
0,636231111513769907
0,636231111513940190
0,636231111514105282
0,636231111514275198
0,636231111514440281
0,636231111514605570
0,636231111514775665
0,636231111514940744
0,636231111515110659
0,636231111515275756
0,636231111515440843
0,636231111515610938
0,636231111515776030
0,636231111515941131
0,636231111516111213
0,636231111516276309
0,636231111516441397
0,636231111516611505
0,636231111516776601
0,636231111516946683
0,636231111517111780
0,636231111517276880
0,636231111517447146
0,636231111517612238
0,636231111517777151
0,636231111517947241
0,636231111518112333
0,636231111518282424
0,636231111518447516
0,636231111518612800
1,636231111518782703
1,636231111518947799
0,636231111519117894
0,636231111519282982
0,636231111519448082
0,636231111519618276
0,636231111519783278
0,636231111519948379
0,636231111520118452
0,636231111520283724
0,636231111520453639
0,636231111520618744
0,636231111520783840
0,636231111520954038
0,636231111521119014
0,636231111521284307
0,636231111521454201
0,636231111521619285
0,636231111521789384
0,636231111521954497
0,636231111522119568
0,636231111522289843
0,636231111522454939
0,636231111522620031
0,636231111522790130
0,636231111522955218
0,636231111523125125
0,636231111523290221
0,636231111523455326
0,636231111523625429
0,636231111523790517
0,636231111523955626
0,636231111524125871
0,636231111524290792
0,636231111524460874
0,636231111524625966
0,636231111524791259
0,636231111524961341
0,636231111525126245
0,636231111525291337
0,636231111525461440
0,636231111525626520
0,636231111525796619
0,636231111525961916
0,636231111526126820
0,636231111526296893
0,636231111526462174
1,636231111526627082
1,636231111526797177
0,636231111526962273
0,636231111527132364
0,636231111527297460
0,636231111527462727
0,636231111527632839
0,636231111527797743
0,636231111527963032
0,636231111528132926
0,636231111528298018
0,636231111528468104
0,636231111528633402
0,636231111528798485
0,636231111528968576
0,636231111529133480
0,636231111529298576
0,636231111529468667
0,636231111529633776
0,636231111529803858
0,636231111529969159
0,636231111530134055
0,636231111530304342
0,636231111530469250
0,636231111530639315
0,636231111530804407
0,636231111530969687
0,636231111531139598
0,636231111531304686
0,636231111531469791
0,636231111531639890
0,636231111531804974
0,636231111531975069
0,636231111532140186
0,636231111532305249
0,636231111532475339
0,636231111532640448
0,636231111532805523
0,636231111532975627
0,636231111533140710
0,636231111533310822
0,636231111533475897
0,636231111533641015
1,636231111533811088
1,636231111533976185
0,636231111534141272
0,636231111534311367
0,636231111534476459
0,636231111534646554
0,636231111534811830
0,636231111534976918
0,636231111535147026
0,636231111535312113
0,636231111535477030
0,636231111535647125
0,636231111535812204
0,636231111535982303
0,636231111536147400
0,636231111536312693
0,636231111536482578
0,636231111536647683
0,636231111536812762
0,636231111536983041
0,636231111537147962
0,636231111537318044
0,636231111537483149
0,636231111537648434
0,636231111537818387
0,636231111537983599
0,636231111538148704
0,636231111538318602
0,636231111538483908
0,636231111538653789
0,636231111538819069
0,636231111538983973
0,636231111539154175
0,636231111539319340
0,636231111539484269
0,636231111539654343
0,636231111539819456
0,636231111539989534
0,636231111540154639
0,636231111540319714
0,636231111540489813
0,636231111540654905
0,636231111540819993
1,636231111540990109
1,636231111541155372
0,636231111541325279
0,636231111541490555
0,636231111541655643
0,636231111541825554
0,636231111541990834
0,636231111542160745
0,636231111542326021
0,636231111542491117
0,636231111542661024
0,636231111542826321
0,636231111542991413
0,636231111543161316
0,636231111543326579
0,636231111543491487
0,636231111543661766
0,636231111543826858
0,636231111543996786
0,636231111544161882
0,636231111544326966
0,636231111544497044
0,636231111544662140
0,636231111544832239
0,636231111544997340
0,636231111545162432
0,636231111545332509
0,636231111545497619
0,636231111545662694
0,636231111545832788
0,636231111545997893
0,636231111546162985
0,636231111546333072
0,636231111546498172
0,636231111546668284
0,636231111546833359
0,636231111546998451
0,636231111547168538
0,636231111547333630
0,636231111547503720
0,636231111547668817
0,636231111547833913
0,636231111548004008
0,636231111548169096
1,636231111548334188
1,636231111548504278
0,636231111548669375
0,636231111548839470
0,636231111549004574
0,636231111549169675
0,636231111549339749
0,636231111549504849
0,636231111549674931
0,636231111549840036
0,636231111550005124
0,636231111550175214
0,636231111550340328
0,636231111550505578
0,636231111550675677
0,636231111550840590
0,636231111551005686
0,636231111551175785
0,636231111551340860
0,636231111551510964
0,636231111551676051
0,636231111551841323
0,636231111552011431
0,636231111552176514
0,636231111552346425
0,636231111552511530
0,636231111552676789
0,636231111552846709
0,636231111553011831
0,636231111553176897
0,636231111553347000
0,636231111553512084
0,636231111553677351
0,636231111553847262
0,636231111554012564
0,636231111554182471
0,636231111554347537
0,636231111554512826
0,636231111554682728
0,636231111554847816
0,636231111555017915
0,636231111555183020
0,636231111555348309
0,636231111555518203
0,636231111555683286
1,636231111555848588
1,636231111556018473
0,636231111556183582
0,636231111556353660
0,636231111556518765
0,636231111556684037
0,636231111556853952
0,636231111557019031
0,636231111557184119
0,636231111557354231
0,636231111557519498
0,636231111557689405
0,636231111557854514
0,636231111558019589
0,636231111558189680
0,636231111558354776
0,636231111558520048
0,636231111558689980
0,636231111558855243
0,636231111559025150
0,636231111559190289
0,636231111559355343
0,636231111559525617
0,636231111559690525
0,636231111559855827
0,636231111560025708
0,636231111560190984
0,636231111560360895
0,636231111560525996
0,636231111560691263
0,636231111560861174
0,636231111561026450
0,636231111561191358
0,636231111561361466
0,636231111561526541
0,636231111561696640
0,636231111561861749
0,636231111562026820
0,636231111562196915
0,636231111562362020
0,636231111562527103
1,636231111562697219
1,636231111562862290
0,636231111563032573
0,636231111563197656
0,636231111563362569
0,636231111563532664
0,636231111563697756
0,636231111563867851
0,636231111564032943
0,636231111564198240
0,636231111564368147
0,636231111564533247
0,636231111564698515
0,636231111564868593
0,636231111565033689
0,636231111565198777
0,636231111565368872
0,636231111565533780
0,636231111565703875
0,636231111565869155
0,636231111566034067
0,636231111566204149
0,636231111566369434
0,636231111566534342
0,636231111566704428
0,636231111566869717
0,636231111567039786
0,636231111567204712
0,636231111567369983
0,636231111567539894
0,636231111567704999
0,636231111567875094
0,636231111568040199
0,636231111568205287
0,636231111568375377
0,636231111568540469
0,636231111568705544
0,636231111568875644
0,636231111569040736
0,636231111569210831
0,636231111569375935
0,636231111569541203
0,636231111569711332
0,636231111569876197
1,636231111570041294
1,636231111570211572
0,636231111570376481
0,636231111570546575
0,636231111570711680
0,636231111570876948
0,636231111571047038
0,636231111571211942
0,636231111571377222
0,636231111571547138
0,636231111571712238
0,636231111571882320
0,636231111572047592
0,636231111572212505
0,636231111572382612
0,636231111572547871
0,636231111572712967
0,636231111572882891
0,636231111573047970
0,636231111573218065
0,636231111573383341
0,636231111573548262
0,636231111573718541
0,636231111573883449
0,636231111574048742
0,636231111574218803
0,636231111574383904
0,636231111574553810
0,636231111574719086
0,636231111574884178
0,636231111575054324
0,636231111575219198
0,636231111575384457
0,636231111575554552
0,636231111575719477
0,636231111575889559
0,636231111576054656
0,636231111576219735
0,636231111576390018
0,636231111576554939
0,636231111576720228
0,636231111576890318
0,636231111577055406
0,636231111577225300
0,636231111577390392
0,636231111577555672
0,636231111577725609
0,636231111577890671
0,636231111578060762
0,636231111578225862
1,636231111578390954
1,636231111578561045
0,636231111578726146
0,636231111578891233
