93,636231111010227975
93,636231111010338186
93,636231111010443214
93,636231111010553331
93,636231111010658369
93,636231111010763265
93,636231111010868328
93,636231111010978564
93,636231111011083623
93,636231111011188506
93,636231111011293736
93,636231111011398628
93,636231111011508689
93,636231111011613914
93,636231111011723805
93,636231111011828863
93,636231111011933905
93,636231111012038985
93,636231111012144039
93,636231111012249102
93,636231111012354139
93,636231111012459386
93,636231111012569259
93,636231111012674322
93,636231111012779380
93,636231111012884439
93,636231111012994518
93,636231111013104558
93,636231111013214640
93,636231111013324680
93,636231111013429957
93,636231111013534806
93,636231111013639873
93,636231111013749917
93,636231111013860171
93,636231111013965230
93,636231111014070113
93,636231111014175347
93,636231111014280406
93,636231111014385293
93,636231111014490348
93,636231111014595406
93,636231111014700448
93,636231111014805523
93,636231111014910582
93,636231111015015645
93,636231111015120690
93,636231111015225741
93,636231111015335810
93,636231111015440865
93,636231111015545919
93,636231111015656194
93,636231111015761060
93,636231111015866115
93,636231111015971344
93,636231111016076399
93,636231111016181282
93,636231111016286332
93,636231111016391412
93,636231111016496449
93,636231111016606575
93,636231111016711646
93,636231111016816705
93,636231111016926937
93,636231111017031825
93,636231111017137050
93,636231111017241938
93,636231111017347171
93,636231111017452046
93,636231111017557113
93,636231111017662339
93,636231111017767231
93,636231111017872298
93,636231111017982363
91,636231111018087589
91,636231111018192472
91,636231111018302516
91,636231111018407592
91,636231111018512633
91,636231111018617701
91,636231111018722939
91,636231111018827805
91,636231111018932893
91,636231111019038115
91,636231111019142989
91,636231111019253059
91,636231111019358118
91,636231111019463172
91,636231111019568415
91,636231111019673285
91,636231111019783342
91,636231111019888405
91,636231111019993660
91,636231111020098535
91,636231111020203581
91,636231111020308823
91,636231111020418714
91,636231111020523879
91,636231111020628822
91,636231111020733902
91,636231111020838935
91,636231111020943989
91,636231111021049069
91,636231111021159135
91,636231111021264172
91,636231111021369235
91,636231111021474311
91,636231111021579369
91,636231111021684599
91,636231111021794468
91,636231111021894733
91,636231111021999783
91,636231111022104842
91,636231111022209712
91,636231111022314758
91,636231111022424837
91,636231111022529891
91,636231111022634950
91,636231111022739991
91,636231111022845238
91,636231111022950121
91,636231111023055184
91,636231111023160413
91,636231111023265284
91,636231111023370360
91,636231111023475418
91,636231111023580464
91,636231111023685540
91,636231111023790581
91,636231111023895670
91,636231111024000720
91,636231111024110978
91,636231111024215818
91,636231111024321091
91,636231111024425927
91,636231111024531182
91,636231111024636048
91,636231111024741291
91,636231111024851168
91,636231111024956231
91,636231111025066288
91,636231111025171544
91,636231111025276440
91,636231111025381468
91,636231111025486715
91,636231111025591598
91,636231111025696824
91,636231111025801899
91,636231111025911948
91,636231111026016823
91,636231111026121881
91,636231111026227167
91,636231111026337207
91,636231111026447076
91,636231111026552305
91,636231111026657359
91,636231111026762422
91,636231111026867481
91,636231111026972351
91,636231111027077410
91,636231111027182652
91,636231111027287711
91,636231111027392586
91,636231111027497824
91,636231111027602716
91,636231111027712781
91,636231111027818020
91,636231111027922886
91,636231111028027957
91,636231111028133195
91,636231111028238074
91,636231111028343304
91,636231111028448200
91,636231111028553250
91,636231111028658484
91,636231111028763367
91,636231111028868597
91,636231111028973463
91,636231111029078723
91,636231111029183580
91,636231111029288665
91,636231111029393715
91,636231111029498948
91,636231111029603832
91,636231111029708890
91,636231111029818939
91,636231111029929188
91,636231111030034076
91,636231111030139306
91,636231111030244189
91,636231111030354284
91,636231111030459493
91,636231111030569575
91,636231111030674600
91,636231111030779479
91,636231111030889536
91,636231111030994783
91,636231111031099670
91,636231111031209714
91,636231111031314773
91,636231111031419836
91,636231111031524895
91,636231111031629949
91,636231111031735007
91,636231111031840075
91,636231111031945129
91,636231111032050183
91,636231111032155246
91,636231111032260305
91,636231111032365363
91,636231111032470418
91,636231111032575480
91,636231111032680539
91,636231111032785598
91,636231111032890652
91,636231111032995715
91,636231111033100782
91,636231111033205836
91,636231111033310891
91,636231111033415949
91,636231111033521008
91,636231111033626066
91,636231111033731121
91,636231111033836184
91,636231111033941246
91,636231111034046309
91,636231111034151364
89,636231111034256418
89,636231111034361481
89,636231111034466544
89,636231111034571598
89,636231111034676657
89,636231111034781707
89,636231111034886769
89,636231111034996831
89,636231111035101889
89,636231111035206948
89,636231111035312007
89,636231111035417061
89,636231111035522119
89,636231111035627187
89,636231111035732245
89,636231111035837295
89,636231111035942354
89,636231111036047417
89,636231111036152471
89,636231111036257534
89,636231111036362592
89,636231111036467651
89,636231111036572710
89,636231111036677764
89,636231111036782823
89,636231111036887890
89,636231111036992944
89,636231111037098003
89,636231111037208064
89,636231111037313123
89,636231111037418185
89,636231111037523244
89,636231111037633301
89,636231111037738360
89,636231111037843418
89,636231111037948481
89,636231111038053536
89,636231111038158594
89,636231111038263653
89,636231111038368711
89,636231111038473766
89,636231111038578824
89,636231111038683887
89,636231111038788946
89,636231111038894004
89,636231111038999063
89,636231111039104121
89,636231111039209180
89,636231111039314239
89,636231111039419293
89,636231111039524356
89,636231111039629414
89,636231111039734482
89,636231111039839540
89,636231111039944590
89,636231111040049644
89,636231111040154712
89,636231111040259762
89,636231111040364829
89,636231111040469883
89,636231111040574942
89,636231111040679996
89,636231111040785055
89,636231111040890122
89,636231111040995189
89,636231111041100239
89,636231111041205293
89,636231111041310348
89,636231111041415410
89,636231111041525472
89,636231111041635533
89,636231111041745595
89,636231111041850653
89,636231111041955712
89,636231111042060770
89,636231111042165829
89,636231111042270896
89,636231111042375946
89,636231111042481005
89,636231111042586063
89,636231111042691122
89,636231111042801183
89,636231111042906242
89,636231111043011300
89,636231111043116359
89,636231111043221413
89,636231111043326660
86,636231111043431560
86,636231111043536782
86,636231111043641652
86,636231111043746715
86,636231111043851773
86,636231111043956832
86,636231111044061882
86,636231111044166949
86,636231111044272016
86,636231111044377066
86,636231111044482125
86,636231111044587192
86,636231111044692242
86,636231111044797305
86,636231111044902355
86,636231111045012421
86,636231111045117475
86,636231111045222534
86,636231111045332591
86,636231111045437666
86,636231111045542708
86,636231111045647784
86,636231111045753017
86,636231111045858072
86,636231111045962947
86,636231111046068001
86,636231111046173077
86,636231111046278319
86,636231111046388188
86,636231111046493426
86,636231111046598480
86,636231111046703359
86,636231111046808431
86,636231111046913485
86,636231111047023726
86,636231111047133783
86,636231111047243674
86,636231111047353735
86,636231111047463796
86,636231111047569026
86,636231111047673896
86,636231111047778959
86,636231111047889205
86,636231111047994088
86,636231111048104337
86,636231111048209208
86,636231111048314254
86,636231111048419316
86,636231111048524563
86,636231111048634466
86,636231111048739495
86,636231111048844554
86,636231111048949822
86,636231111049054671
86,636231111049159729
86,636231111049265002
86,636231111049369842
86,636231111049474982
86,636231111049580143
86,636231111049685018
86,636231111049790102
86,636231111049895135
86,636231111050000215
86,636231111050105252
86,636231111050210311
86,636231111050310551
86,636231111050415609
86,636231111050520493
86,636231111050630554
86,636231111050735792
86,636231111050840851
86,636231111050950908
86,636231111051055791
86,636231111051160867
86,636231111051271116
86,636231111051376145
86,636231111051486206
86,636231111051591265
86,636231111051696323
86,636231111051801198
86,636231111051906261
86,636231111052011320
86,636231111052116378
86,636231111052226448
86,636231111052331498
86,636231111052436741
86,636231111052541607
82,636231111052646700
82,636231111052751741
82,636231111052856808
82,636231111052962064
82,636231111053066921
82,636231111053172172
82,636231111053277038
82,636231111053382264
82,636231111053487156
82,636231111053592201
82,636231111053692441
82,636231111053797500
82,636231111053907569
82,636231111054012436
82,636231111054117507
82,636231111054222732
82,636231111054327812
82,636231111054432683
82,636231111054537750
82,636231111054647803
82,636231111054753037
82,636231111054857916
82,636231111054962962
82,636231111055068024
82,636231111055173079
82,636231111055278360
82,636231111055383222
82,636231111055488254
82,636231111055593501
82,636231111055703563
82,636231111055808617
82,636231111055913492
82,636231111056018563
82,636231111056123605
82,636231111056228860
82,636231111056333739
82,636231111056443980
82,636231111056549026
82,636231111056653934
82,636231111056764150
82,636231111056869054
82,636231111056974263
82,636231111057079163
82,636231111057184222
82,636231111057289263
82,636231111057394548
82,636231111057499376
82,636231111057604640
82,636231111057709489
82,636231111057814573
82,636231111057924797
82,636231111058034683
82,636231111058139733
82,636231111058244813
82,636231111058349850
82,636231111058454909
82,636231111058560151
82,636231111058665026
82,636231111058770110
82,636231111058875148
82,636231111058975400
82,636231111059080271
82,636231111059185316
82,636231111059290375
82,636231111059395647
82,636231111059500710
82,636231111059605551
82,636231111059715621
82,636231111059820675
82,636231111059930749
82,636231111060035803
82,636231111060140853
82,636231111060245921
82,636231111060351159
82,636231111060456025
82,636231111060561276
82,636231111060666142
82,636231111060771201
82,636231111060876264
82,636231111060981335
82,636231111061091379
82,636231111061196626
82,636231111061301689
82,636231111061406572
79,636231111061506837
79,636231111061611665
79,636231111061716912
79,636231111061821787
79,636231111061932036
79,636231111062036928
79,636231111062146968
79,636231111062252215
79,636231111062357273
79,636231111062462293
79,636231111062567390
79,636231111062672458
79,636231111062777324
79,636231111062882395
79,636231111062992439
79,636231111063097507
79,636231111063202561
79,636231111063307620
79,636231111063417677
79,636231111063522769
79,636231111063632801
79,636231111063737864
79,636231111063842931
79,636231111063947985
79,636231111064053027
79,636231111064158192
79,636231111064263144
79,636231111064373235
79,636231111064478452
79,636231111064583327
79,636231111064693388
79,636231111064798447
79,636231111064908508
79,636231111065013584
79,636231111065118647
79,636231111065223688
79,636231111065328943
79,636231111065433814
79,636231111065538868
79,636231111065643935
79,636231111065753988
79,636231111065859038
79,636231111065964114
79,636231111066069155
79,636231111066174214
79,636231111066279273
79,636231111066384335
79,636231111066489390
79,636231111066594453
79,636231111066699511
79,636231111066804565
79,636231111066909628
79,636231111067014717
79,636231111067124744
79,636231111067234810
79,636231111067339868
79,636231111067444927
79,636231111067550011
79,636231111067655040
79,636231111067760098
79,636231111067865166
79,636231111067975248
79,636231111068080277
79,636231111068185336
79,636231111068290394
79,636231111068395453
79,636231111068500528
79,636231111068605570
79,636231111068710637
79,636231111068815700
79,636231111068920746
79,636231111069030811
79,636231111069135870
79,636231111069240933
79,636231111069345996
79,636231111069451050
79,636231111069556104
79,636231111069661159
79,636231111069766221
75,636231111069871284
75,636231111069976339
75,636231111070081397
75,636231111070186456
75,636231111070296521
75,636231111070401576
75,636231111070506643
75,636231111070611693
75,636231111070721763
75,636231111070831811
75,636231111070936896
75,636231111071046940
75,636231111071151990
75,636231111071257049
75,636231111071362129
75,636231111071472198
75,636231111071577420
75,636231111071682470
75,636231111071787349
75,636231111071892617
75,636231111071997479
75,636231111072102708
75,636231111072212603
75,636231111072317657
75,636231111072422887
75,636231111072527941
75,636231111072632833
75,636231111072737896
75,636231111072842929
75,636231111072943168
75,636231111073048261
75,636231111073153110
75,636231111073258169
75,636231111073368414
75,636231111073473293
75,636231111073578356
75,636231111073683406
75,636231111073788469
75,636231111073893523
75,636231111073998586
75,636231111074103636
75,636231111074208695
75,636231111074313753
75,636231111074418816
75,636231111074523875
75,636231111074628933
75,636231111074733992
75,636231111074839046
75,636231111074944105
75,636231111075049168
75,636231111075154226
75,636231111075259285
75,636231111075364343
75,636231111075469406
75,636231111075579472
75,636231111075684522
75,636231111075789589
75,636231111075894639
75,636231111075999698
75,636231111076104761
75,636231111076209819
75,636231111076314878
75,636231111076419936
75,636231111076524995
75,636231111076630054
75,636231111076735104
75,636231111076840167
75,636231111076945225
75,636231111077050284
75,636231111077155338
75,636231111077260401
75,636231111077365459
75,636231111077475525
75,636231111077580584
75,636231111077685634
75,636231111077790697
75,636231111077895755
72,636231111078000814
72,636231111078105881
72,636231111078210935
72,636231111078315990
72,636231111078421052
72,636231111078531114
72,636231111078636168
72,636231111078741227
72,636231111078846298
72,636231111078951344
72,636231111079056407
72,636231111079161465
72,636231111079266520
72,636231111079371578
72,636231111079476637
72,636231111079586698
72,636231111079691753
72,636231111079796815
72,636231111079901874
72,636231111080006928
72,636231111080111987
72,636231111080217046
72,636231111080322108
72,636231111080427167
72,636231111080532234
72,636231111080637284
72,636231111080742343
72,636231111080847406
72,636231111080952460
72,636231111081057519
72,636231111081162577
72,636231111081267636
72,636231111081372690
72,636231111081477749
72,636231111081582816
72,636231111081687870
72,636231111081792929
72,636231111081897992
72,636231111082003050
72,636231111082108104
72,636231111082213159
72,636231111082318230
72,636231111082423297
72,636231111082528339
72,636231111082633397
72,636231111082738469
72,636231111082843515
72,636231111082948573
72,636231111083053632
72,636231111083158690
72,636231111083263749
72,636231111083368812
72,636231111083473870
72,636231111083578925
72,636231111083683983
72,636231111083789042
72,636231111083894100
72,636231111084004166
72,636231111084114219
72,636231111084219282
72,636231111084329347
72,636231111084434402
72,636231111084539465
72,636231111084649517
72,636231111084754580
72,636231111084859639
72,636231111084964702
72,636231111085069769
72,636231111085174815
72,636231111085279869
72,636231111085384928
72,636231111085489990
72,636231111085595045
72,636231111085700116
72,636231111085805166
72,636231111085910221
72,636231111086015283
72,636231111086120342
71,636231111086225396
71,636231111086335458
71,636231111086440516
71,636231111086550590
71,636231111086655649
71,636231111086760695
71,636231111086865762
71,636231111086970821
71,636231111087075871
71,636231111087180933
71,636231111087285996
71,636231111087391055
71,636231111087496109
71,636231111087601168
71,636231111087706226
71,636231111087816288
71,636231111087921359
71,636231111088026593
71,636231111088131464
71,636231111088236535
71,636231111088341576
71,636231111088446828
71,636231111088551899
71,636231111088661764
71,636231111088767006
71,636231111088876888
71,636231111088981951
71,636231111089087180
71,636231111089197237
71,636231111089302296
71,636231111089407171
71,636231111089512246
71,636231111089617476
71,636231111089722535
71,636231111089827405
71,636231111089932648
71,636231111090037522
71,636231111090142769
71,636231111090247644
71,636231111090352886
71,636231111090457761
71,636231111090562837
71,636231111090667900
71,636231111090772941
71,636231111090878017
71,636231111090983058
71,636231111091088134
71,636231111091188356
71,636231111091293218
71,636231111091403293
71,636231111091508364
71,636231111091613414
71,636231111091718656
71,636231111091823518
71,636231111091928581
71,636231111092033636
71,636231111092138882
71,636231111092248944
71,636231111092353998
71,636231111092459057
71,636231111092568951
71,636231111092674181
71,636231111092784080
71,636231111092894304
71,636231111092999200
71,636231111093099418
71,636231111093204288
71,636231111093309368
71,636231111093414406
71,636231111093519481
71,636231111093624540
71,636231111093729769
71,636231111093834657
71,636231111093944885
71,636231111094049952
71,636231111094154818
71,636231111094259975
71,636231111094364949
71,636231111094470182
71,636231111094580051
71,636231111094685302
71,636231111094790173
71,636231111094895415
71,636231111095005301
71,636231111095110356
71,636231111095215410
71,636231111095325655
71,636231111095430757
71,636231111095535670
71,636231111095640869
71,636231111095745706
71,636231111095850781
71,636231111095961018
71,636231111096066072
71,636231111096170943
71,636231111096276190
71,636231111096381081
71,636231111096486136
71,636231111096591182
71,636231111096696261
71,636231111096801483
71,636231111096906362
71,636231111097016423
71,636231111097121661
71,636231111097226536
71,636231111097331689
71,636231111097436833
71,636231111097541801
71,636231111097651957
71,636231111097762018
71,636231111097866893
71,636231111097971947
71,636231111098077194
71,636231111098182082
71,636231111098287307
71,636231111098392370
71,636231111098497424
71,636231111098602487
71,636231111098707383
71,636231111098812604
71,636231111098917475
71,636231111099022721
71,636231111099127780
71,636231111099232839
71,636231111099337709
71,636231111099442776
71,636231111099552859
71,636231111099658076
71,636231111099762963
71,636231111099868026
71,636231111099973247
71,636231111100078310
71,636231111100188183
71,636231111100293430
71,636231111100398484
71,636231111100503543
71,636231111100608426
71,636231111100713476
71,636231111100818723
71,636231111100923782
71,636231111101028844
71,636231111101133715
71,636231111101238778
71,636231111101339017
71,636231111101444072
71,636231111101548951
71,636231111101654185
71,636231111101759076
71,636231111101864139
71,636231111101969365
71,636231111102074445
71,636231111102179298
71,636231111102284369
71,636231111102389411
71,636231111102494653
71,636231111102599528
71,636231111102699772
71,636231111102804660
71,636231111102909701
71,636231111103014948
71,636231111103124838
71,636231111103230063
71,636231111103334942
71,636231111103440005
71,636231111103545068
71,636231111103650302
71,636231111103760201
71,636231111103865230
71,636231111103970310
71,636231111104075351
71,636231111104180410
71,636231111104280654
71,636231111104385712
71,636231111104490583
71,636231111104595658
71,636231111104705891
71,636231111104810949
71,636231111104915845
71,636231111105020896
71,636231111105126121
71,636231111105230996
71,636231111105336071
71,636231111105441113
71,636231111105546176
71,636231111105651230
71,636231111105756293
71,636231111105861360
71,636231111105966611
71,636231111106071481
71,636231111106176527
71,636231111106281770
71,636231111106386640
71,636231111106491887
71,636231111106596757
71,636231111106701820
71,636231111106806879
71,636231111106911933
71,636231111107022178
71,636231111107127237
71,636231111107232129
71,636231111107337174
71,636231111107442242
71,636231111107542490
71,636231111107647356
71,636231111107752402
71,636231111107857482
71,636231111107957709
71,636231111108062806
71,636231111108167633
71,636231111108272901
71,636231111108377759
71,636231111108487825
71,636231111108593080
72,636231111108698147
72,636231111108803176
72,636231111108908051
72,636231111109013122
72,636231111109123166
72,636231111109233245
72,636231111109338474
72,636231111109443362
72,636231111109548403
72,636231111109653496
72,636231111109758709
72,636231111109863588
72,636231111109968663
72,636231111110073713
72,636231111110178943
72,636231111110284023
72,636231111110389082
72,636231111110493931
72,636231111110599071
72,636231111110709063
72,636231111110814293
72,636231111110919172
72,636231111111024415
72,636231111111129289
72,636231111111234361
72,636231111111339424
72,636231111111449476
72,636231111111554706
72,636231111111659769
72,636231111111764661
72,636231111111874893
72,636231111111979764
72,636231111112084835
72,636231111112189881
72,636231111112294952
72,636231111112400225
72,636231111112505270
72,636231111112610299
72,636231111112715383
72,636231111112820408
72,636231111112925308
72,636231111113030384
72,636231111113135592
72,636231111113240651
72,636231111113345538
72,636231111113450768
72,636231111113555638
72,636231111113660701
72,636231111113765952
72,636231111113875864
72,636231111113981063
72,636231111114085947
72,636231111114190993
72,636231111114296055
72,636231111114401110
72,636231111114511355
72,636231111114616448
72,636231111114721472
72,636231111114826535
72,636231111114931594
72,636231111115036652
72,636231111115141711
72,636231111115246598
72,636231111115351657
72,636231111115456698
72,636231111115561761
72,636231111115666837
72,636231111115772058
72,636231111115876933
72,636231111115982013
72,636231111116087058
72,636231111116192113
72,636231111116297351
74,636231111116402431
74,636231111116507297
74,636231111116612561
74,636231111116717624
74,636231111116822477
74,636231111116927523
74,636231111117032765
74,636231111117142831
74,636231111117247885
74,636231111117352756
74,636231111117457840
74,636231111117562873
74,636231111117668124
74,636231111117772994
74,636231111117878049
74,636231111117983112
74,636231111118088196
74,636231111118193246
74,636231111118298309
74,636231111118408362
74,636231111118518440
74,636231111118623674
74,636231111118728532
74,636231111118833770
74,636231111118943664
74,636231111119053704
74,636231111119158955
74,636231111119264005
74,636231111119369064
74,636231111119474123
74,636231111119578997
74,636231111119684248
74,636231111119789298
74,636231111119894190
74,636231111119999232
74,636231111120104312
74,636231111120209353
74,636231111120314437
74,636231111120419479
74,636231111120529716
74,636231111120634774
74,636231111120739645
74,636231111120844887
74,636231111120949950
74,636231111121054825
74,636231111121165066
74,636231111121269949
74,636231111121374995
74,636231111121480241
74,636231111121585133
74,636231111121690179
74,636231111121795250
74,636231111121905295
74,636231111122010541
74,636231111122115596
74,636231111122225478
74,636231111122335723
74,636231111122445605
74,636231111122555666
74,636231111122660908
74,636231111122765988
74,636231111122870837
74,636231111122976084
74,636231111123081139
74,636231111123191012
74,636231111123296096
74,636231111123401150
74,636231111123506376
74,636231111123611434
74,636231111123716309
74,636231111123821380
74,636231111123926439
74,636231111124031669
75,636231111124136565
75,636231111124241606
75,636231111124346686
75,636231111124456730
75,636231111124561798
75,636231111124666839
75,636231111124771906
75,636231111124881968
75,636231111124987026
75,636231111125092081
75,636231111125197156
75,636231111125302215
75,636231111125407252
75,636231111125512494
75,636231111125617369
75,636231111125722428
75,636231111125827495
75,636231111125932742
75,636231111126037604
75,636231111126147686
75,636231111126252719
75,636231111126362866
75,636231111126468032
75,636231111126572906
75,636231111126677969
75,636231111126788039
75,636231111126893085
75,636231111126998319
75,636231111127103194
75,636231111127208256
75,636231111127313495
75,636231111127418566
75,636231111127528615
75,636231111127633494
75,636231111127738736
75,636231111127843611
75,636231111127948686
75,636231111128053912
75,636231111128158970
75,636231111128263845
75,636231111128368904
75,636231111128479149
75,636231111128584049
75,636231111128694269
75,636231111128804142
75,636231111128909222
75,636231111129014452
75,636231111129119322
75,636231111129229392
75,636231111129334442
75,636231111129444495
75,636231111129549562
75,636231111129654625
75,636231111129759688
75,636231111129869741
75,636231111129974799
75,636231111130079862
75,636231111130184916
75,636231111130289984
75,636231111130395029
75,636231111130500109
75,636231111130610158
75,636231111130720215
75,636231111130825274
75,636231111130930332
75,636231111131035391
75,636231111131140454
77,636231111131245512
77,636231111131350575
77,636231111131455621
77,636231111131560684
77,636231111131665926
77,636231111131770822
77,636231111131876005
77,636231111131981098
77,636231111132085977
77,636231111132196042
77,636231111132301097
77,636231111132406177
77,636231111132511210
77,636231111132616272
77,636231111132721331
77,636231111132826394
77,636231111132931649
77,636231111133036520
77,636231111133141578
77,636231111133246615
77,636231111133346876
77,636231111133451922
77,636231111133556793
77,636231111133661873
77,636231111133762099
77,636231111133866970
77,636231111133967240
77,636231111134072101
77,636231111134177143
77,636231111134282202
77,636231111134387277
77,636231111134492319
77,636231111134597377
77,636231111134702462
77,636231111134807494
77,636231111134912557
77,636231111135022794
77,636231111135127690
77,636231111135232744
77,636231111135332971
77,636231111135437859
77,636231111135543088
77,636231111135647980
77,636231111135753052
77,636231111135858093
77,636231111135963323
77,636231111136068377
77,636231111136173440
77,636231111136278315
77,636231111136383395
77,636231111136493448
77,636231111136598493
77,636231111136703556
77,636231111136808799
77,636231111136913673
77,636231111137018740
77,636231111137123996
77,636231111137228858
77,636231111137334087
77,636231111137438983
77,636231111137544038
77,636231111137649259
77,636231111137754322
77,636231111137859196
77,636231111137964272
77,636231111138069314
77,636231111138174552
77,636231111138279615
77,636231111138384506
77,636231111138489548
77,636231111138594624
77,636231111138699669
77,636231111138804724
77,636231111138909795
77,636231111139019869
78,636231111139125082
78,636231111139229974
78,636231111139335015
78,636231111139440288
78,636231111139545154
78,636231111139650383
78,636231111139760436
78,636231111139865311
78,636231111139970558
78,636231111140075612
78,636231111140180512
78,636231111140285550
78,636231111140390796
78,636231111140495671
78,636231111140605916
78,636231111140710782
78,636231111140820844
78,636231111140925915
78,636231111141031145
78,636231111141136212
78,636231111141241266
78,636231111141346325
78,636231111141451208
78,636231111141556254
78,636231111141661330
78,636231111141766572
78,636231111141871618
78,636231111141976493
78,636231111142081739
78,636231111142186794
78,636231111142291852
78,636231111142396723
78,636231111142501786
78,636231111142606861
78,636231111142711903
78,636231111142817145
78,636231111142922212
78,636231111143027074
78,636231111143132137
78,636231111143237196
78,636231111143342250
78,636231111143442490
78,636231111143547373
78,636231111143652423
78,636231111143757661
78,636231111143862540
78,636231111143967624
78,636231111144072679
78,636231111144177908
78,636231111144282792
78,636231111144388021
78,636231111144492913
78,636231111144597950
78,636231111144703013
78,636231111144808285
78,636231111144918129
78,636231111145023371
78,636231111145128255
78,636231111145233339
78,636231111145338367
78,636231111145443443
78,636231111145548668
78,636231111145653560
78,636231111145758615
78,636231111145863677
78,636231111145973743
78,636231111146078969
78,636231111146184027
78,636231111146289081
78,636231111146394144
78,636231111146499010
78,636231111146604086
78,636231111146709320
78,636231111146814212
78,636231111146919433
78,636231111147024492
78,636231111147129366
78,636231111147234438
78,636231111147344491
78,636231111147449724
78,636231111147554621
78,636231111147659675
78,636231111147769723
78,636231111147874966
78,636231111147979853
78,636231111148085083
78,636231111148189979
78,636231111148295012
78,636231111148400075
78,636231111148505146
78,636231111148610231
78,636231111148715251
78,636231111148820326
78,636231111148925552
78,636231111149030435
78,636231111149135481
78,636231111149240732
78,636231111149345632
78,636231111149450657
78,636231111149560731
78,636231111149665781
78,636231111149771019
78,636231111149876103
78,636231111149980974
78,636231111150086032
78,636231111150191266
78,636231111150296145
78,636231111150401199
78,636231111150506442
78,636231111150611321
78,636231111150721370
78,636231111150826612
78,636231111150931675
78,636231111151041561
78,636231111151146624
78,636231111151251665
78,636231111151356728
78,636231111151461962
78,636231111151566845
78,636231111151671917
78,636231111151776954
78,636231111151882017
78,636231111151987097
78,636231111152092151
78,636231111152197197
78,636231111152302439
78,636231111152407318
78,636231111152512390
78,636231111152617448
78,636231111152722481
78,636231111152827732
78,636231111152932616
78,636231111153037849
78,636231111153142899
78,636231111153247962
78,636231111153352833
78,636231111153463087
78,636231111153567966
78,636231111153673195
78,636231111153778074
78,636231111153883347
78,636231111153988187
78,636231111154093455
78,636231111154198326
78,636231111154303367
78,636231111154413625
78,636231111154518667
78,636231111154623546
78,636231111154728797
78,636231111154833676
78,636231111154938905
78,636231111155043960
78,636231111155153837
78,636231111155264121
78,636231111155369175
78,636231111155474037
78,636231111155579074
77,636231111155684159
77,636231111155789221
77,636231111155894254
77,636231111155999313
77,636231111156104384
77,636231111156214638
77,636231111156324704
77,636231111156429754
77,636231111156534624
77,636231111156639670
77,636231111156744746
77,636231111156849971
77,636231111156954863
77,636231111157059922
77,636231111157165147
77,636231111157270034
77,636231111157375076
77,636231111157480139
77,636231111157585381
77,636231111157690256
77,636231111157795323
77,636231111157900369
77,636231111158005620
77,636231111158110713
77,636231111158215566
77,636231111158320608
77,636231111158425854
77,636231111158530720
77,636231111158635805
77,636231111158741021
77,636231111158846084
77,636231111158951139
77,636231111159056197
77,636231111159161256
77,636231111159266314
77,636231111159371189
77,636231111159476252
77,636231111159581311
77,636231111159686553
77,636231111159791458
77,636231111159896508
77,636231111160001545
77,636231111160106621
77,636231111160211662
77,636231111160311898
77,636231111160416986
77,636231111160522049
77,636231111160626889
77,636231111160732162
77,636231111160837225
77,636231111160942270
77,636231111161047342
77,636231111161152392
77,636231111161257451
77,636231111161362509
77,636231111161472382
77,636231111161577608
77,636231111161682671
77,636231111161792728
77,636231111161902601
77,636231111162007664
77,636231111162112906
77,636231111162217781
77,636231111162322840
77,636231111162428103
77,636231111162532974
77,636231111162638037
77,636231111162743258
77,636231111162848145
77,636231111162958211
77,636231111163068272
77,636231111163178496
77,636231111163283371
77,636231111163388434
77,636231111163493505
77,636231111163598564
77,636231111163708796
77,636231111163813872
77,636231111163918913
77,636231111164023792
77,636231111164128868
77,636231111164234085
77,636231111164339148
77,636231111164444040
77,636231111164549081
77,636231111164654165
77,636231111164759382
77,636231111164864270
77,636231111164969324
77,636231111165074374
77,636231111165179445
77,636231111165284487
77,636231111165389563
77,636231111165494608
77,636231111165599859
77,636231111165704730
77,636231111165809801
77,636231111165914843
77,636231111166020085
77,636231111166125140
77,636231111166230211
77,636231111166335094
77,636231111166440140
77,636231111166545220
77,636231111166650445
77,636231111166755312
77,636231111166860366
77,636231111166960610
77,636231111167065480
77,636231111167170727
77,636231111167275606
77,636231111167380660
77,636231111167485723
77,636231111167590961
77,636231111167695836
77,636231111167801087
77,636231111167905953
77,636231111168016032
77,636231111168121257
77,636231111168226316
77,636231111168331207
77,636231111168436270
77,636231111168541312
77,636231111168646366
77,636231111168751604
77,636231111168856483
77,636231111168961559
77,636231111169066784
77,636231111169171655
77,636231111169281733
77,636231111169381969
77,636231111169487023
77,636231111169591898
77,636231111169701955
77,636231111169807009
77,636231111169912072
77,636231111170017148
77,636231111170122373
77,636231111170227436
77,636231111170337493
77,636231111170442372
77,636231111170547461
77,636231111170652673
77,636231111170757727
77,636231111170862602
77,636231111170967874
77,636231111171072719
77,636231111171177795
77,636231111171287835
77,636231111171392953
77,636231111171497961
77,636231111171603015
76,636231111171708262
76,636231111171813316
76,636231111171918208
76,636231111172023249
76,636231111172128488
76,636231111172233555
76,636231111172338613
76,636231111172448491
76,636231111172553549
76,636231111172658788
76,636231111172763667
76,636231111172868729
76,636231111172973831
76,636231111173079048
76,636231111173184119
76,636231111173293958
76,636231111173399017
76,636231111173504272
76,636231111173614137
76,636231111173719208
76,636231111173824258
76,636231111173929509
76,636231111174034388
76,636231111174139442
76,636231111174244676
76,636231111174349726
76,636231111174454627
76,636231111174559685
76,636231111174664731
76,636231111174769798
76,636231111174875028
76,636231111174980082
76,636231111175084957
76,636231111175195018
76,636231111175300261
76,636231111175405153
76,636231111175510386
76,636231111175615436
76,636231111175720491
76,636231111175825383
76,636231111175930441
76,636231111176035483
76,636231111176140734
76,636231111176245626
76,636231111176350663
76,636231111176455721
76,636231111176560985
76,636231111176665839
76,636231111176771094
76,636231111176875969
76,636231111176981019
76,636231111177086261
76,636231111177191136
76,636231111177296190
76,636231111177401244
76,636231111177506320
76,636231111177611379
76,636231111177716424
76,636231111177821663
76,636231111177926559
76,636231111178031600
76,636231111178136843
76,636231111178246737
76,636231111178351783
76,636231111178457025
76,636231111178561896
76,636231111178667143
76,636231111178772026
76,636231111178877260
76,636231111178982314
76,636231111179087185
76,636231111179192247
76,636231111179297490
76,636231111179402378
76,636231111179507423
76,636231111179612661
76,636231111179717729
76,636231111179822787
76,636231111179932660
76,636231111180037732
76,636231111180142966
76,636231111180252839
76,636231111180357919
76,636231111180463136
76,636231111180568032
76,636231111180673257
76,636231111180778320
76,636231111180883203
76,636231111180988437
76,636231111181098319
76,636231111181203373
76,636231111181308620
76,636231111181413495
76,636231111181518545
76,636231111181623599
76,636231111181733883
76,636231111181838741
76,636231111181943795
76,636231111182053843
76,636231111182158911
76,636231111182263961
76,636231111182374210
76,636231111182479102
76,636231111182584319
76,636231111182689202
76,636231111182794252
76,636231111182899332
76,636231111183004566
76,636231111183114435
76,636231111183214670
76,636231111183319554
76,636231111183424796
76,636231111183529679
76,636231111183634905
76,636231111183744996
76,636231111183850063
76,636231111183959919
76,636231111184065179
76,636231111184175043
76,636231111184280265
76,636231111184385327
76,636231111184490202
76,636231111184600264
76,636231111184710342
76,636231111184815567
76,636231111184920622
76,636231111185025689
76,636231111185135562
76,636231111185240638
76,636231111185345696
76,636231111185450738
76,636231111185555796
76,636231111185661052
76,636231111185765935
76,636231111185870972
76,636231111185976026
76,636231111186081115
76,636231111186186161
76,636231111186291395
76,636231111186401452
76,636231111186506344
76,636231111186611381
76,636231111186716636
76,636231111186821502
76,636231111186926745
76,636231111187031632
76,636231111187136699
76,636231111187241737
76,636231111187346795
76,636231111187451862
76,636231111187556925
76,636231111187661984
76,636231111187767218
75,636231111187872298
75,636231111187977356
75,636231111188087204
75,636231111188192267
75,636231111188297325
75,636231111188402568
75,636231111188507447
75,636231111188617525
75,636231111188722751
75,636231111188827634
75,636231111188932859
75,636231111189037922
75,636231111189147817
75,636231111189253042
75,636231111189358101
75,636231111189462975
75,636231111189568214
75,636231111189673093
75,636231111189773332
75,636231111189878391
75,636231111189983266
75,636231111190088337
75,636231111190193404
75,636231111190298441
75,636231111190403513
75,636231111190508738
75,636231111190613801
75,636231111190723862
75,636231111190828921
75,636231111190930076
75,636231111191035083
75,636231111191136178
75,636231111191237589
75,636231111191338637
75,636231111191439308
75,636231111191540335
75,636231111191644149
75,636231111191745120
75,636231111191845984
75,636231111191946908
75,636231111192047926
75,636231111192149337
75,636231111192250025
75,636231111192350483
75,636231111192451360
75,636231111192552857
75,636231111192661263
75,636231111192764800
75,636231111192869824
75,636231111192975109
75,636231111193078834
75,636231111193179292
75,636231111193280173
75,636231111193381434
75,636231111193482606
75,636231111193586968
75,636231111193687554
75,636231111193795541
75,636231111193899946
75,636231111194000852
75,636231111194103174
75,636231111194207976
75,636231111194309242
75,636231111194410641
75,636231111194516324
75,636231111194616503
75,636231111194717910
75,636231111194818808
75,636231111194920143
75,636231111195024658
75,636231111195125184
76,636231111195225980
76,636231111195327250
76,636231111195427785
76,636231111195528858
76,636231111195629727
76,636231111195730868
76,636231111195831920
76,636231111195932836
76,636231111196039712
76,636231111196142645
76,636231111196243778
76,636231111196345861
76,636231111196455918
76,636231111196560968
76,636231111196666027
76,636231111196771085
76,636231111196876144
76,636231111196981202
76,636231111197091272
76,636231111197196318
76,636231111197301381
76,636231111197404156
76,636231111197508351
76,636231111197612550
76,636231111197716108
76,636231111197821380
76,636231111197926229
76,636231111198031369
76,636231111198141367
76,636231111198241970
76,636231111198342359
76,636231111198442556
76,636231111198543578
76,636231111198648380
76,636231111198753486
76,636231111198858095
76,636231111198963346
76,636231111199073232
76,636231111199178462
76,636231111199283332
76,636231111199388391
76,636231111199493445
76,636231111199598508
76,636231111199703751
76,636231111199808634
76,636231111199913864
76,636231111200018931
76,636231111200123793
76,636231111200228877
76,636231111200334098
76,636231111200438981
76,636231111200544053
76,636231111200649278
76,636231111200754337
76,636231111200859207
76,636231111200959447
76,636231111201064522
76,636231111201169397
76,636231111201274622
76,636231111201379519
76,636231111201484740
76,636231111201589632
76,636231111201694673
76,636231111201794908
76,636231111201899804
76,636231111202005030
76,636231111202109900
76,636231111202215147
76,636231111202320026
76,636231111202425093
76,636231111202530147
76,636231111202635215
76,636231111202740440
76,636231111202845507
76,636231111202950557
75,636231111203055445
75,636231111203160503
75,636231111203265549
75,636231111203370603
75,636231111203475854
75,636231111203580725
75,636231111203685801
75,636231111203791039
75,636231111203896084
75,636231111204000972
75,636231111204111042
75,636231111204216092
75,636231111204321151
75,636231111204426209
75,636231111204531255
75,636231111204636339
75,636231111204741393
75,636231111204846448
75,636231111204951502
75,636231111205056732
75,636231111205161790
75,636231111205266853
75,636231111205371728
75,636231111205481969
75,636231111205586856
75,636231111205687049
75,636231111205791958
75,636231111205897029
75,636231111206002268
75,636231111206107134
75,636231111206212209
75,636231111206317435
75,636231111206422493
75,636231111206532371
75,636231111206637613
75,636231111206742509
75,636231111206847564
75,636231111206952789
75,636231111207057852
75,636231111207162911
75,636231111207267986
75,636231111207372840
75,636231111207478091
75,636231111207582970
75,636231111207688208
75,636231111207798077
75,636231111207903319
75,636231111208008207
75,636231111208113253
75,636231111208218499
75,636231111208323383
75,636231111208428433
75,636231111208533483
75,636231111208638558
75,636231111208743792
75,636231111208848667
75,636231111208953738
75,636231111209058793
75,636231111209163834
75,636231111209268901
75,636231111209374169
75,636231111209484030
75,636231111209589088
75,636231111209694134
75,636231111209799291
75,636231111209904440
75,636231111210009323
75,636231111210114552
75,636231111210219615
75,636231111210324687
75,636231111210429561
75,636231111210534800
75,636231111210639845
75,636231111210744720
75,636231111210849800
75,636231111210954846
75,636231111211059909
75,636231111211164967
75,636231111211275204
75,636231111211380074
75,636231111211490144
75,636231111211595190
75,636231111211705444
75,636231111211815501
75,636231111211920380
75,636231111212025623
75,636231111212130502
75,636231111212235552
75,636231111212340794
75,636231111212445664
75,636231111212550744
75,636231111212655799
75,636231111212760849
75,636231111212865929
75,636231111212970966
75,636231111213076020
75,636231111213181156
75,636231111213286321
75,636231111213391213
75,636231111213496267
75,636231111213601514
75,636231111213706372
75,636231111213811614
75,636231111213916506
75,636231111214021736
75,636231111214126606
75,636231111214231849
75,636231111214336740
75,636231111214441778
75,636231111214546841
75,636231111214652087
75,636231111214757142
75,636231111214862204
75,636231111214967105
75,636231111215072129
75,636231111215177218
75,636231111215287442
75,636231111215392333
75,636231111215497555
75,636231111215602446
75,636231111215707672
75,636231111215812730
75,636231111215917609
75,636231111216027850
75,636231111216132738
75,636231111216237779
75,636231111216342864
75,636231111216447896
75,636231111216552959
75,636231111216658018
75,636231111216768263
75,636231111216873330
75,636231111216978201
75,636231111217083268
75,636231111217188331
75,636231111217293372
75,636231111217398615
75,636231111217508680
75,636231111217613773
75,636231111217718622
75,636231111217823668
75,636231111217928739
75,636231111218033785
75,636231111218144030
75,636231111218249093
75,636231111218354148
75,636231111218459018
75,636231111218564102
75,636231111218669328
75,636231111218774194
75,636231111218879436
75,636231111218984495
75,636231111219089378
75,636231111219194445
75,636231111219299491
75,636231111219404567
75,636231111219509608
75,636231111219614876
75,636231111219724955
75,636231111219829783
75,636231111219939844
75,636231111220044920
75,636231111220154968
75,636231111220260206
75,636231111220365265
75,636231111220470144
75,636231111220575382
75,636231111220680445
75,636231111220785333
75,636231111220890558
75,636231111220995454
75,636231111221105682
75,636231111221210745
75,636231111221315671
75,636231111221420704
75,636231111221525750
75,636231111221630791
75,636231111221736038
75,636231111221841092
75,636231111221945980
75,636231111222051038
75,636231111222156097
75,636231111222266171
75,636231111222371200
75,636231111222476284
75,636231111222581321
75,636231111222686577
75,636231111222791443
75,636231111222896501
75,636231111223001740
75,636231111223111818
75,636231111223216671
75,636231111223321918
75,636231111223426981
75,636231111223531873
75,636231111223636940
75,636231111223742157
75,636231111223847211
75,636231111223952295
75,636231111224057362
75,636231111224167201
75,636231111224272264
75,636231111224377331
75,636231111224482377
75,636231111224587444
75,636231111224692494
75,636231111224797570
75,636231111224907636
75,636231111225012857
75,636231111225117920
75,636231111225222794
75,636231111225327853
75,636231111225432912
75,636231111225537974
75,636231111225643029
75,636231111225748087
75,636231111225853142
75,636231111225958217
75,636231111226063280
75,636231111226168506
76,636231111226273393
76,636231111226378619
76,636231111226483502
76,636231111226588599
76,636231111226693807
76,636231111226798857
76,636231111226903920
76,636231111227008974
76,636231111227114037
76,636231111227218908
76,636231111227323971
76,636231111227429213
76,636231111227534276
76,636231111227639151
76,636231111227744213
76,636231111227849272
76,636231111227949503
76,636231111228054562
76,636231111228159548
76,636231111228264675
76,636231111228369545
76,636231111228479790
76,636231111228584674
76,636231111228689916
76,636231111228794791
76,636231111228900033
76,636231111229009906
76,636231111229114965
76,636231111229220212
76,636231111229330265
76,636231111229435328
76,636231111229540198
76,636231111229645265
76,636231111229750508
76,636231111229855395
76,636231111229960616
76,636231111230065508
76,636231111230170562
76,636231111230275612
76,636231111230380885
76,636231111230485730
76,636231111230590805
76,636231111230696031
76,636231111230801085
76,636231111230906152
76,636231111231016213
76,636231111231121229
76,636231111231226151
76,636231111231331389
76,636231111231436281
76,636231111231541335
76,636231111231646561
76,636231111231751619
76,636231111231856498
76,636231111231961553
76,636231111232066799
76,636231111232171683
76,636231111232276724
76,636231111232381804
76,636231111232486858
76,636231111232587089
76,636231111232692144
76,636231111232802201
76,636231111232907264
76,636231111233012156
76,636231111233117193
76,636231111233222269
76,636231111233327314
76,636231111233432369
76,636231111233537431
76,636231111233642490
76,636231111233747553
76,636231111233852791
76,636231111233962686
76,636231111234067911
76,636231111234172786
76,636231111234277861
76,636231111234382907
76,636231111234488188
76,636231111234593213
76,636231111234698267
76,636231111234808140
76,636231111234913383
76,636231111235018480
76,636231111235123410
76,636231111235228460
76,636231111235333690
76,636231111235438586
76,636231111235543807
76,636231111235648694
76,636231111235753928
76,636231111235858794
76,636231111235964045
76,636231111236068933
76,636231111236173987
76,636231111236284113
76,636231111236389094
76,636231111236494337
76,636231111236599229
76,636231111236704287
76,636231111236809329
76,636231111236914405
76,636231111237019630
76,636231111237124509
76,636231111237229760
76,636231111237334801
76,636231111237439877
76,636231111237544927
76,636231111237649981
76,636231111237754856
76,636231111237860103
76,636231111237964978
76,636231111238070062
76,636231111238175099
76,636231111238280337
76,636231111238385233
76,636231111238495474
76,636231111238600516
76,636231111238705382
76,636231111238810445
76,636231111238915692
76,636231111239020575
76,636231111239125621
76,636231111239230683
76,636231111239335930
76,636231111239440985
76,636231111239546039
76,636231111239651106
76,636231111239755976
76,636231111239861215
76,636231111239966106
76,636231111240071332
76,636231111240176211
76,636231111240281274
76,636231111240381505
76,636231111240486384
76,636231111240591442
76,636231111240696518
76,636231111240801577
76,636231111240906631
76,636231111241011694
76,636231111241116731
76,636231111241221807
76,636231111241322029
76,636231111241427092
76,636231111241531984
76,636231111241642041
76,636231111241747083
77,636231111241852150
77,636231111241957204
77,636231111242062464
77,636231111242167321
77,636231111242272397
77,636231111242377443
77,636231111242492515
77,636231111242597557
77,636231111242702633
77,636231111242807760
77,636231111242912754
77,636231111243017979
77,636231111243123038
77,636231111243227930
77,636231111243337970
77,636231111243443033
77,636231111243548096
77,636231111243653158
77,636231111243758226
77,636231111243863455
77,636231111243968338
77,636231111244073568
77,636231111244178622
77,636231111244283514
77,636231111244388564
77,636231111244498626
77,636231111244603676
77,636231111244708751
77,636231111244813793
77,636231111244919057
77,636231111245023923
77,636231111245129161
77,636231111245234224
77,636231111245339090
77,636231111245444144
77,636231111245549412
77,636231111245654262
77,636231111245759504
77,636231111245864563
77,636231111245969450
77,636231111246074496
77,636231111246179572
77,636231111246284630
77,636231111246389809
77,636231111246499917
77,636231111246604984
77,636231111246709872
77,636231111246815106
77,636231111246919980
77,636231111247025035
77,636231111247130102
77,636231111247235165
77,636231111247340202
77,636231111247445277
77,636231111247550507
77,636231111247655390
77,636231111247760453
77,636231111247865495
77,636231111247970553
77,636231111248070802
77,636231111248175672
77,636231111248280820
77,636231111248385789
77,636231111248490848
77,636231111248596090
77,636231111248700969
77,636231111248806049
77,636231111248911099
77,636231111249021139
77,636231111249126386
77,636231111249231440
77,636231111249336319
77,636231111249441566
77,636231111249546616
77,636231111249651512
77,636231111249756733
77,636231111249861608
77,636231111249971691
77,636231111250076728
77,636231111250181970
77,636231111250287033
77,636231111250392092
77,636231111250496979
77,636231111250602111
77,636231111250707268
77,636231111250817162
77,636231111250927202
77,636231111251032261
77,636231111251137345
77,636231111251242592
77,636231111251347437
77,636231111251452692
77,636231111251557746
77,636231111251662629
77,636231111251767859
77,636231111251872918
77,636231111251977805
77,636231111252082847
77,636231111252188089
77,636231111252292981
77,636231111252398027
77,636231111252503274
77,636231111252608157
77,636231111252713215
77,636231111252823264
77,636231111252928335
77,636231111253033595
77,636231111253138645
77,636231111253243494
77,636231111253348604
77,636231111253458614
77,636231111253563673
77,636231111253663921
77,636231111253768971
77,636231111253874038
77,636231111253978908
77,636231111254083984
77,636231111254189021
77,636231111254299083
77,636231111254404146
77,636231111254509200
77,636231111254614447
77,636231111254719321
77,636231111254824388
77,636231111254929434
77,636231111255034497
77,636231111255139573
77,636231111255239791
77,636231111255344670
77,636231111255449908
77,636231111255554809
77,636231111255659863
77,636231111255765084
77,636231111255870147
77,636231111255975043
77,636231111256080268
77,636231111256185353
77,636231111256290411
77,636231111256395252
77,636231111256500332
77,636231111256610556
77,636231111256715447
77,636231111256820493
77,636231111256925556
77,636231111257030632
77,636231111257135686
77,636231111257240723
77,636231111257345991
77,636231111257450845
77,636231111257556091
77,636231111257660958
77,636231111257766020
77,636231111257871075
77,636231111257976155
77,636231111258081201
77,636231111258186434
77,636231111258291313
77,636231111258401559
77,636231111258506617
77,636231111258611672
77,636231111258716546
77,636231111258821793
77,636231111258926681
77,636231111259031756
77,636231111259136781
77,636231111259242027
77,636231111259347116
77,636231111259452140
77,636231111259557036
77,636231111259662262
77,636231111259767136
77,636231111259872212
77,636231111259977271
77,636231111260082312
77,636231111260187559
77,636231111260292447
77,636231111260397505
77,636231111260502542
77,636231111260607785
77,636231111260712660
77,636231111260817714
77,636231111260927784
77,636231111261032847
77,636231111261137901
77,636231111261242955
77,636231111261353239
77,636231111261458280
77,636231111261563326
77,636231111261673195
77,636231111261783261
77,636231111261888315
77,636231111261993562
77,636231111262098428
77,636231111262203495
77,636231111262308567
77,636231111262413612
77,636231111262518688
77,636231111262623909
77,636231111262728810
77,636231111262833842
77,636231111262938905
77,636231111263043981
77,636231111263149018
77,636231111263254085
77,636231111263359140
77,636231111263464215
77,636231111263574268
77,636231111263684317
77,636231111263789375
77,636231111263894438
77,636231111263999497
77,636231111264104564
77,636231111264209618
77,636231111264314677
77,636231111264419740
77,636231111264524790
77,636231111264629848
77,636231111264734920
77,636231111264835147
77,636231111264940201
77,636231111265045080
77,636231111265150318
77,636231111265255248
77,636231111265360251
77,636231111265465310
77,636231111265570561
77,636231111265675637
77,636231111265780490
77,636231111265885561
77,636231111265995623
77,636231111266100664
77,636231111266205740
77,636231111266310794
77,636231111266421031
77,636231111266526085
77,636231111266631144
77,636231111266736044
77,636231111266841082
77,636231111266946337
77,636231111267051194
77,636231111267156257
77,636231111267256523
77,636231111267361393
77,636231111267466610
77,636231111267571673
77,636231111267676560
77,636231111267781606
77,636231111267886866
77,636231111267991924
77,636231111268096778
77,636231111268201849
77,636231111268306903
77,636231111268412141
77,636231111268517200
77,636231111268622263
77,636231111268727249
77,636231111268832188
77,636231111268937430
77,636231111269042309
77,636231111269147381
77,636231111269247603
77,636231111269352662
77,636231111269457554
77,636231111269567602
77,636231111269667923
77,636231111269772729
77,636231111269877775
77,636231111269982842
77,636231111270088098
77,636231111270193177
77,636231111270303008
77,636231111270408092
77,636231111270513313
77,636231111270618372
77,636231111270723247
77,636231111270828301
77,636231111270933360
77,636231111271038435
77,636231111271143494
77,636231111271248535
77,636231111271353756
77,636231111271458836
77,636231111271563711
77,636231111271668770
77,636231111271769014
77,636231111271873901
77,636231111271979126
77,636231111272084018
77,636231111272194281
77,636231111272299309
77,636231111272404368
77,636231111272514455
77,636231111272619300
77,636231111272724551
77,636231111272834420
77,636231111272939666
77,636231111273044729
77,636231111273149784
77,636231111273254842
77,636231111273359897
77,636231111273464951
77,636231111273574850
77,636231111273679896
77,636231111273784980
77,636231111273890192
77,636231111274000087
77,636231111274105133
77,636231111274210401
77,636231111274315421
77,636231111274420479
77,636231111274525380
77,636231111274635612
77,636231111274740500
77,636231111274845558
77,636231111274950617
77,636231111275055663
77,636231111275160901
77,636231111275265806
77,636231111275371018
77,636231111275475897
77,636231111275580969
77,636231111275686031
77,636231111275796089
77,636231111275901151
77,636231111276006231
77,636231111276111435
77,636231111276216515
77,636231111276321582
77,636231111276431426
77,636231111276531700
77,636231111276636540
77,636231111276741616
77,636231111276841851
77,636231111276946735
77,636231111277051767
77,636231111277157014
77,636231111277262073
77,636231111277372134
77,636231111277477009
77,636231111277582067
77,636231111277687318
77,636231111277792202
77,636231111277897431
77,636231111278002306
77,636231111278107360
77,636231111278212440
77,636231111278317666
77,636231111278422553
77,636231111278522801
77,636231111278632863
77,636231111278737712
77,636231111278842792
77,636231111278947825
77,636231111279053076
77,636231111279157946
77,636231111279263189
77,636231111279368068
77,636231111279473319
77,636231111279578185
77,636231111279688246
77,636231111279793305
77,636231111279893540
77,636231111279998607
77,636231111280103486
77,636231111280208759
77,636231111280313800
77,636231111280418666
77,636231111280523725
77,636231111280628792
77,636231111280733825
77,636231111280844075
77,636231111280949138
76,636231111281053999
76,636231111281159246
76,636231111281264258
76,636231111281369175
76,636231111281474422
76,636231111281579301
76,636231111281684360
76,636231111281794601
76,636231111281899492
76,636231111282004547
76,636231111282109781
76,636231111282214831
76,636231111282319898
76,636231111282424965
76,636231111282529827
76,636231111282635074
76,636231111282740162
76,636231111282845003
76,636231111282950061
76,636231111283055308
76,636231111283160366
76,636231111283265421
76,636231111283370479
76,636231111283480357
76,636231111283585599
76,636231111283690495
76,636231111283795717
76,636231111283900596
76,636231111284005838
76,636231111284110892
76,636231111284215784
76,636231111284320847
76,636231111284426102
76,636231111284530956
76,636231111284641197
76,636231111284751249
76,636231111284856128
76,636231111284961367
76,636231111285071432
76,636231111285181498
76,636231111285286548
76,636231111285391423
76,636231111285496682
76,636231111285601540
76,636231111285706799
76,636231111285811657
76,636231111285916720
76,636231111286021778
76,636231111286126846
76,636231111286231900
76,636231111286336959
76,636231111286442009
76,636231111286552297
76,636231111286657317
76,636231111286762204
76,636231111286867267
76,636231111286972488
76,636231111287077367
76,636231111287182421
76,636231111287282665
76,636231111287387728
76,636231111287492594
76,636231111287597666
76,636231111287702900
76,636231111287807770
76,636231111287913021
76,636231111288018097
76,636231111288123134
77,636231111288228017
77,636231111288333067
77,636231111288443304
77,636231111288548196
77,636231111288653255
77,636231111288758322
77,636231111288863376
77,636231111288968435
77,636231111289073498
77,636231111289178539
77,636231111289283610
77,636231111289393843
77,636231111289498901
77,636231111289603956
77,636231111289708852
77,636231111289819080
77,636231111289924134
77,636231111290029197
77,636231111290134072
77,636231111290239130
77,636231111290349192
77,636231111290454447
77,636231111290559330
77,636231111290664368
77,636231111290769426
77,636231111290874485
77,636231111290979548
77,636231111291084615
77,636231111291189673
77,636231111291294907
77,636231111291399778
77,636231111291505029
77,636231111291609908
77,636231111291720140
77,636231111291830197
77,636231111291935072
77,636231111292040340
77,636231111292150192
77,636231111292255276
77,636231111292360309
77,636231111292465389
77,636231111292570435
77,636231111292675502
77,636231111292780544
77,636231111292885816
77,636231111292990661
77,636231111293095732
77,636231111293205798
77,636231111293315842
77,636231111293421106
77,636231111293525968
77,636231111293631022
77,636231111293736089
77,636231111293841319
77,636231111293946377
77,636231111294051269
77,636231111294156431
77,636231111294261369
77,636231111294366432
77,636231111294466672
77,636231111294571547
77,636231111294676609
77,636231111294781660
77,636231111294886932
77,636231111294991991
77,636231111295096835
77,636231111295201894
77,636231111295306957
77,636231111295412032
77,636231111295517065
77,636231111295622128
77,636231111295727187
77,636231111295832429
77,636231111295937304
77,636231111296042380
77,636231111296147605
77,636231111296252668
77,636231111296357727
77,636231111296462614
77,636231111296567681
77,636231111296672723
77,636231111296782776
77,636231111296888061
77,636231111296992893
77,636231111297097973
77,636231111297203014
77,636231111297308257
77,636231111297413148
77,636231111297518190
77,636231111297623428
77,636231111297728316
77,636231111297833550
77,636231111297938437
77,636231111298043479
77,636231111298148721
77,636231111298258603
77,636231111298363845
77,636231111298468900
77,636231111298573796
77,636231111298683853
77,636231111298793914
77,636231111298898969
77,636231111299004031
77,636231111299109073
77,636231111299214320
77,636231111299319378
77,636231111299424433
77,636231111299529307
77,636231111299634554
77,636231111299739424
77,636231111299844671
77,636231111299949725
77,636231111300054784
77,636231111300159851
77,636231111300264901
77,636231111300369793
77,636231111300474839
77,636231111300580077
77,636231111300684952
77,636231111300795013
77,636231111300900093
77,636231111301005344
77,636231111301110206
77,636231111301220267
77,636231111301325493
77,636231111301430573
77,636231111301535443
77,636231111301640673
77,636231111301745727
77,636231111301850627
77,636231111301955665
77,636231111302060723
77,636231111302165778
77,636231111302271024
77,636231111302375899
77,636231111302486140
77,636231111302596030
77,636231111302706083
77,636231111302811138
77,636231111302916205
77,636231111303021280
77,636231111303126330
77,636231111303231385
77,636231111303336448
77,636231111303441681
77,636231111303546740
77,636231111303651606
77,636231111303756686
77,636231111303861916
77,636231111303971802
77,636231111304077027
77,636231111304182099
77,636231111304292151
77,636231111304402020
77,636231111304507083
77,636231111304612339
77,636231111304717380
77,636231111304822263
77,636231111304927322
77,636231111305032372
77,636231111305137452
77,636231111305242682
77,636231111305352764
77,636231111305457827
77,636231111305562758
77,636231111305667919
77,636231111305772798
77,636231111305877865
77,636231111305983090
77,636231111306092985
77,636231111306198210
77,636231111306308276
77,636231111306413159
77,636231111306518389
77,636231111306623447
77,636231111306728506
77,636231111306833569
77,636231111306938456
77,636231111307043515
77,636231111307148740
77,636231111307253803
77,636231111307358678
77,636231111307463732
77,636231111307569005
77,636231111307673871
77,636231111307778921
77,636231111307889153
77,636231111307994041
77,636231111308099270
77,636231111308204149
77,636231111308309212
77,636231111308414262
77,636231111308519509
77,636231111308624563
77,636231111308729447
77,636231111308834501
77,636231111308939572
77,636231111309044631
77,636231111309149681
77,636231111309254731
77,636231111309359798
77,636231111309460042
77,636231111309565088
77,636231111309669980
77,636231111309775025
77,636231111309880285
77,636231111309990163
77,636231111310095388
77,636231111310200442
77,636231111310310504
77,636231111310415391
77,636231111310520437
77,636231111310625679
77,636231111310730558
77,636231111310835805
77,636231111310940671
77,636231111311045743
77,636231111311150788
77,636231111311255868
77,636231111311360927
77,636231111311466144
77,636231111311571040
77,636231111311676090
77,636231111311781157
77,636231111311886211
77,636231111311991257
77,636231111312101336
77,636231111312206570
77,636231111312311624
77,636231111312416700
77,636231111312521553
77,636231111312626804
77,636231111312731867
77,636231111312836921
77,636231111312941809
77,636231111313047030
77,636231111313152093
77,636231111313256967
77,636231111313362030
77,636231111313467264
77,636231111313572177
77,636231111313677219
77,636231111313782256
77,636231111313887537
77,636231111313992382
77,636231111314097611
77,636231111314202679
77,636231111314307575
77,636231111314412791
77,636231111314517871
77,636231111314622930
77,636231111314727989
77,636231111314832842
77,636231111314937918
77,636231111315042972
77,636231111315148035
77,636231111315253269
77,636231111315358152
77,636231111315463232
77,636231111315568273
77,636231111315673319
77,636231111315778557
77,636231111315883612
77,636231111315988645
77,636231111316093562
77,636231111316203611
77,636231111316308678
77,636231111316413741
77,636231111316518799
77,636231111316623858
77,636231111316728904
77,636231111316834155
77,636231111316939200
77,636231111317044268
77,636231111317149288
77,636231111317254209
77,636231111317359443
77,636231111317469312
77,636231111317579395
77,636231111317679613
77,636231111317789512
77,636231111317894554
77,636231111317999612
77,636231111318104671
77,636231111318209913
77,636231111318314972
77,636231111318420031
77,636231111318525093
78,636231111318635159
78,636231111318740205
78,636231111318845080
78,636231111318950155
78,636231111319055381
78,636231111319160268
78,636231111319265318
78,636231111319370390
78,636231111319475431
78,636231111319580490
78,636231111319685553
78,636231111319790615
78,636231111319895670
78,636231111320000733
78,636231111320105783
78,636231111320210841
78,636231111320316092
78,636231111320421147
78,636231111320526017
78,636231111320631076
78,636231111320736322
78,636231111320841377
78,636231111320946273
78,636231111321051498
78,636231111321156381
78,636231111321261427
78,636231111321366503
78,636231111321471544
78,636231111321576599
78,636231111321681679
78,636231111321786720
78,636231111321891963
78,636231111321996854
78,636231111322101909
78,636231111322207143
78,636231111322312009
78,636231111322417080
78,636231111322522134
78,636231111322627193
78,636231111322732247
78,636231111322837327
78,636231111322947555
78,636231111323052430
78,636231111323162671
78,636231111323267747
78,636231111323372604
78,636231111323477680
78,636231111323582739
78,636231111323687785
78,636231111323792865
78,636231111323897897
78,636231111324002960
78,636231111324108036
78,636231111324213261
78,636231111324318136
78,636231111324423190
78,636231111324528253
78,636231111324633496
78,636231111324738383
78,636231111324848616
78,636231111324958506
78,636231111325063569
78,636231111325168610
78,636231111325278672
78,636231111325383914
78,636231111325488977
78,636231111325593865
78,636231111325698919
78,636231111325803960
78,636231111325909203
78,636231111326014082
78,636231111326119158
78,636231111326224387
78,636231111326329283
78,636231111326434333
78,636231111326539371
78,636231111326644446
78,636231111326749697
78,636231111326854760
78,636231111326959810
78,636231111327064668
78,636231111327169722
78,636231111327274973
78,636231111327379844
78,636231111327485082
78,636231111327589974
78,636231111327690200
78,636231111327795259
78,636231111327900313
78,636231111328005192
78,636231111328110430
78,636231111328215318
78,636231111328320368
78,636231111328425422
78,636231111328530507
78,636231111328635557
78,636231111328740816
78,636231111328850869
78,636231111328955735
78,636231111329060794
78,636231111329165840
78,636231111329270894
78,636231111329380955
78,636231111329486031
78,636231111329591265
78,636231111329696131
78,636231111329801374
78,636231111329906432
78,636231111330011499
78,636231111330116558
78,636231111330221608
78,636231111330326671
78,636231111330431541
78,636231111330536621
78,636231111330641851
78,636231111330746734
78,636231111330851981
78,636231111330956856
78,636231111331062077
78,636231111331166956
78,636231111331272207
78,636231111331377257
78,636231111331487309
78,636231111331592372
78,636231111331697264
78,636231111331802306
78,636231111331907552
78,636231111332012423
78,636231111332117507
78,636231111332222544
78,636231111332327782
78,636231111332432670
78,636231111332537716
78,636231111332642800
78,636231111332747842
78,636231111332853097
78,636231111332957963
78,636231111333063009
78,636231111333168277
78,636231111333273139
78,636231111333378197
79,636231111333478463
79,636231111333583299
79,636231111333688370
79,636231111333793433
79,636231111333898659
79,636231111334003550
79,636231111334108609
79,636231111334213839
79,636231111334318713
79,636231111334423956
79,636231111334529010
79,636231111334633889
79,636231111334738961
79,636231111334844032
79,636231111334949078
79,636231111335054119
79,636231111335159203
79,636231111335264446
79,636231111335369504
79,636231111335474371
79,636231111335584612
79,636231111335694609
79,636231111335799556
79,636231111335904606
79,636231111336009652
79,636231111336114715
79,636231111336219838
79,636231111336330014
79,636231111336435069
79,636231111336539952
79,636231111336645015
79,636231111336750082
79,636231111336855145
79,636231111336960362
79,636231111337065245
79,636231111337170321
79,636231111337275375
79,636231111337380442
79,636231111337490478
79,636231111337595558
79,636231111337700599
79,636231111337805667
79,636231111337910729
79,636231111338015955
79,636231111338125832
79,636231111338231075
79,636231111338336142
79,636231111338441192
79,636231111338546071
79,636231111338656137
79,636231111338766206
79,636231111338871252
79,636231111338976319
79,636231111339081558
79,636231111339191427
79,636231111339296502
79,636231111339401728
79,636231111339506786
79,636231111339611849
79,636231111339716719
79,636231111339821966
79,636231111339931857
79,636231111340041914
79,636231111340146955
79,636231111340252206
79,636231111340357077
79,636231111340462131
79,636231111340572201
79,636231111340677272
79,636231111340782314
79,636231111340882558
79,636231111340987437
79,636231111341092504
79,636231111341197729
79,636231111341302604
79,636231111341407876
79,636231111341512935
79,636231111341617775
79,636231111341722860
79,636231111341827897
79,636231111341932955
79,636231111342038018
79,636231111342143085
79,636231111342248319
79,636231111342353378
79,636231111342458266
79,636231111342563328
79,636231111342668554
79,636231111342773428
79,636231111342878508
79,636231111342988570
79,636231111343093603
79,636231111343198683
79,636231111343303724
79,636231111343408997
79,636231111343514030
79,636231111343618896
79,636231111343723976
79,636231111343829043
79,636231111343934264
79,636231111344044146
79,636231111344149196
79,636231111344259437
79,636231111344364316
79,636231111344474386
79,636231111344579448
79,636231111344684494
79,636231111344789549
79,636231111344894791
79,636231111344999687
79,636231111345109731
79,636231111345214794
79,636231111345324868
79,636231111345434913
79,636231111345544970
79,636231111345650212
79,636231111345755104
79,636231111345860150
79,636231111345965208
79,636231111346070280
79,636231111346175321
79,636231111346280572
79,636231111346385456
79,636231111346495709
79,636231111346605745
79,636231111346710641
79,636231111346815679
79,636231111346920754
79,636231111347025821
79,636231111347130859
79,636231111347235930
81,636231111347341155
81,636231111347451221
81,636231111347556091
81,636231111347661171
81,636231111347771395
81,636231111347876454
81,636231111347981333
81,636231111348086400
81,636231111348191450
81,636231111348296714
81,636231111348401751
81,636231111348506810
81,636231111348611834
81,636231111348716927
81,636231111348821819
81,636231111348927053
81,636231111349032098
81,636231111349137157
81,636231111349242040
81,636231111349347099
81,636231111349452157
81,636231111349557216
81,636231111349662488
81,636231111349767325
81,636231111349872396
81,636231111349977459
81,636231111350082505
81,636231111350187589
81,636231111350292806
81,636231111350397676
81,636231111350502795
81,636231111350607836
81,636231111350712908
81,636231111350817966
81,636231111350928023
81,636231111351028250
81,636231111351133125
81,636231111351238183
81,636231111351343246
81,636231111351448305
81,636231111351553368
81,636231111351663468
81,636231111351773666
81,636231111351878562
81,636231111351988619
81,636231111352088842
81,636231111352193930
81,636231111352298984
81,636231111352403851
81,636231111352504073
81,636231111352609127
81,636231111352714011
81,636231111352814250
81,636231111352919313
81,636231111353029195
81,636231111353134237
81,636231111353239483
81,636231111353344375
81,636231111353449417
81,636231111353554484
81,636231111353659542
81,636231111353764605
81,636231111353869655
81,636231111353974727
81,636231111354084955
81,636231111354195042
81,636231111354299904
81,636231111354409957
81,636231111354520026
81,636231111354625085
81,636231111354730131
81,636231111354835202
81,636231111354940440
81,636231111355045456
81,636231111355150382
81,636231111355255608
81,636231111355360504
81,636231111355465558
81,636231111355570608
81,636231111355675675
81,636231111355780901
81,636231111355885946
81,636231111355990842
81,636231111356095910
81,636231111356201135
81,636231111356306005
81,636231111356411256
81,636231111356516131
81,636231111356621198
81,636231111356726244
81,636231111356831315
81,636231111356936357
81,636231111357041416
81,636231111357146662
81,636231111357256749
81,636231111357361804
81,636231111357466661
81,636231111357571720
81,636231111357676783
81,636231111357782034
81,636231111357891890
81,636231111357996953
81,636231111358102011
81,636231111358207254
81,636231111358312312
81,636231111358417379
81,636231111358522429
81,636231111358627492
81,636231111358732363
81,636231111358837443
81,636231111358942493
81,636231111359047551
81,636231111359152610
81,636231111359257840
81,636231111359362727
81,636231111359467777
81,636231111359572836
81,636231111359678083
81,636231111359782957
81,636231111359888007
81,636231111359993280
81,636231111360103341
81,636231111360208391
81,636231111360313249
81,636231111360418491
81,636231111360523541
81,636231111360628433
81,636231111360733479
81,636231111360838721
81,636231111360943609
81,636231111361048655
81,636231111361153897
81,636231111361258960
81,636231111361363835
81,636231111361468898
81,636231111361574174
81,636231111361684013
81,636231111361784244
81,636231111361889128
81,636231111361994366
81,636231111362099429
81,636231111362209315
81,636231111362314544
81,636231111362419633
81,636231111362524499
81,636231111362629720
81,636231111362734779
81,636231111362839658
81,636231111362944900
81,636231111363049950
81,636231111363155013
81,636231111363260067
81,636231111363364946
81,636231111363470193
81,636231111363575059
81,636231111363680122
81,636231111363790188
81,636231111363895439
81,636231111364000301
81,636231111364105359
81,636231111364210602
81,636231111364315669
81,636231111364420740
81,636231111364525611
81,636231111364630845
81,636231111364740726
81,636231111364850775
81,636231111364956017
81,636231111365061072
81,636231111365165964
81,636231111365266139
81,636231111365371078
81,636231111365481127
81,636231111365586189
81,636231111365691428
81,636231111365796448
81,636231111365901365
81,636231111366006424
81,636231111366111478
81,636231111366216725
81,636231111366321600
81,636231111366421861
81,636231111366526705
81,636231111366636771
81,636231111366742013
81,636231111366846901
81,636231111366951964
81,636231111367057189
81,636231111367162248
81,636231111367267144
81,636231111367372177
81,636231111367482341
81,636231111367587485
81,636231111367692373
81,636231111367802609
81,636231111367907501
81,636231111368012547
81,636231111368117785
81,636231111368222844
81,636231111368327902
81,636231111368432794
81,636231111368538028
81,636231111368642894
81,636231111368747966
81,636231111368853033
81,636231111368958100
81,636231111369063128
81,636231111369168191
81,636231111369273425
81,636231111369383350
81,636231111369488366
81,636231111369593617
82,636231111369698667
82,636231111369803730
82,636231111369908596
82,636231111370018841
82,636231111370123741
82,636231111370228975
82,636231111370334021
82,636231111370438896
82,636231111370544138
82,636231111370649013
82,636231111370754260
82,636231111370859130
82,636231111370969200
82,636231111371074246
82,636231111371184311
82,636231111371294386
82,636231111371399611
82,636231111371504670
82,636231111371609732
82,636231111371714782
82,636231111371819850
82,636231111371924908
82,636231111372029963
82,636231111372134842
82,636231111372239900
82,636231111372344959
82,636231111372450017
82,636231111372555255
82,636231111372665360
82,636231111372770209
82,636231111372875250
82,636231111372980399
82,636231111373085389
82,636231111373190623
82,636231111373295502
82,636231111373405546
82,636231111373510609
82,636231111373615689
82,636231111373720910
82,636231111373825785
82,636231111373930856
82,636231111374035915
82,636231111374140965
82,636231111374246015
82,636231111374356080
82,636231111374461327
82,636231111374566197
82,636231111374671265
82,636231111374776328
82,636231111374881369
82,636231111374986428
82,636231111375091503
82,636231111375196741
82,636231111375301603
82,636231111375406679
82,636231111375511738
82,636231111375621782
82,636231111375726841
82,636231111375831920
82,636231111375936962
82,636231111376042200
82,636231111376147139
82,636231111376252322
82,636231111376357196
82,636231111376462255
82,636231111376572329
82,636231111376677375
82,636231111376782429
82,636231111376887509
82,636231111376992730
82,636231111377097797
82,636231111377207683
82,636231111377312742
82,636231111377422786
82,636231111377527845
82,636231111377633087
82,636231111377737962
82,636231111377843205
82,636231111377948079
82,636231111378053335
82,636231111378158196
82,636231111378263255
82,636231111378368322
82,636231111378473389
82,636231111378578435
82,636231111378683695
82,636231111378788561
82,636231111378898857
82,636231111379003925
82,636231111379108975
82,636231111379218844
82,636231111379328888
82,636231111379433968
82,636231111379539189
82,636231111379644068
82,636231111379749122
82,636231111379854181
82,636231111379959256
82,636231111380064294
82,636231111380169361
82,636231111380274599
82,636231111380379662
82,636231111380484532
82,636231111380594602
82,636231111380699657
82,636231111380799896
82,636231111380904951
82,636231111381015046
82,636231111381119887
82,636231111381224941
82,636231111381330021
82,636231111381435062
82,636231111381540301
82,636231111381645265
82,636231111381750422
82,636231111381855297
82,636231111381960372
82,636231111382065431
82,636231111382170656
82,636231111382280551
82,636231111382385610
82,636231111382490844
82,636231111382595748
82,636231111382700768
82,636231111382805844
82,636231111382910907
82,636231111383016128
82,636231111383126194
82,636231111383231128
82,636231111383336311
82,636231111383441198
82,636231111383546428
82,636231111383651298
82,636231111383761381
82,636231111383866418
82,636231111383971661
82,636231111384081722
82,636231111384186593
82,636231111384291655
82,636231111384396898
82,636231111384501952
82,636231111384606831
81,636231111384711907
81,636231111384816978
81,636231111384922033
81,636231111385027083
81,636231111385132312
81,636231111385237200
81,636231111385347454
81,636231111385457536
81,636231111385562381
81,636231111385667448
81,636231111385772665
81,636231111385882735
81,636231111385987785
81,636231111386092848
81,636231111386197731
81,636231111386307780
81,636231111386412851
81,636231111386518085
81,636231111386622951
81,636231111386728031
81,636231111386833077
81,636231111386938332
81,636231111387043190
81,636231111387143430
81,636231111387248330
81,636231111387358383
81,636231111387463480
81,636231111387568492
81,636231111387673559
81,636231111387778609
81,636231111387888666
81,636231111387993754
81,636231111388098963
81,636231111388203837
81,636231111388308909
81,636231111388409140
81,636231111388514203
81,636231111388619069
81,636231111388724311
81,636231111388829186
81,636231111388934257
81,636231111389044310
81,636231111389149373
81,636231111389249609
81,636231111389354689
81,636231111389459739
81,636231111389564609
81,636231111389669659
81,636231111389774893
81,636231111389879768
81,636231111389985019
81,636231111390089911
81,636231111390195136
81,636231111390300199
81,636231111390405069
81,636231111390510141
81,636231111390615182
81,636231111390720266
81,636231111390825487
81,636231111390930379
81,636231111391035421
81,636231111391140663
81,636231111391245551
81,636231111391350592
81,636231111391455668
81,636231111391560731
81,636231111391665990
81,636231111391771036
81,636231111391875885
81,636231111391981128
81,636231111392091005
81,636231111392196265
81,636231111392301127
81,636231111392406181
81,636231111392511239
81,636231111392616478
81,636231111392921477
81,636231111393026715
80,636231111393131590
80,636231111393236644
80,636231111393341703
80,636231111393446945
80,636231111393551833
80,636231111393656904
80,636231111393761941
80,636231111393867218
80,636231111393972255
80,636231111394082120
80,636231111394187354
80,636231111394297253
80,636231111394402495
80,636231111394507558
80,636231111394617431
80,636231111394722473
80,636231111394827531
80,636231111394932782
80,636231111395037832
80,636231111395142707
80,636231111395247766
80,636231111395352841
80,636231111395457887
80,636231111395562959
80,636231111395668017
80,636231111395778250
80,636231111395883124
80,636231111395993198
80,636231111396098244
80,636231111396203299
80,636231111396308378
80,636231111396413437
80,636231111396518667
80,636231111396623550
80,636231111396728775
80,636231111396833842
80,636231111396938713
80,636231111397043784
80,636231111397149014
80,636231111397254077
80,636231111397358943
80,636231111397469013
80,636231111397579083
80,636231111397684321
80,636231111397789196
80,636231111397894254
80,636231111398004307
80,636231111398109550
80,636231111398214437
80,636231111398319667
80,636231111398424721
80,636231111398529788
80,636231111398634843
80,636231111398739901
80,636231111398844789
80,636231111398949835
80,636231111399055077
80,636231111399159969
80,636231111399265010
80,636231111399375251
80,636231111399480130
80,636231111399585368
80,636231111399690239
80,636231111399800305
80,636231111399910550
80,636231111400020633
80,636231111400125486
80,636231111400230544
80,636231111400335624
80,636231111400445848
80,636231111400550915
80,636231111400655782
80,636231111400760853
80,636231111400865903
80,636231111400970966
80,636231111401076196
80,636231111401181075
80,636231111401286334
80,636231111401396383
80,636231111401501253
80,636231111401606316
80,636231111401711379
80,636231111401816446
79,636231111401926486
79,636231111402031754
79,636231111402136625
79,636231111402241666
79,636231111402346725
79,636231111402451800
79,636231111402556850
79,636231111402662084
79,636231111402766976
79,636231111402872206
79,636231111402977098
79,636231111403082319
79,636231111403187210
79,636231111403292440
79,636231111403397311
79,636231111403502386
79,636231111403602617
79,636231111403712670
79,636231111403817549
79,636231111403927611
79,636231111404032686
79,636231111404137723
79,636231111404242992
79,636231111404347879
79,636231111404452899
79,636231111404553156
79,636231111404658026
79,636231111404763260
79,636231111404868315
79,636231111404978201
79,636231111405083430
79,636231111405188327
79,636231111405298375
79,636231111405408454
79,636231111405513679
79,636231111405618733
79,636231111405723792
79,636231111405828688
79,636231111405933729
79,636231111406038792
79,636231111406143847
79,636231111406253929
79,636231111406358988
79,636231111406464025
79,636231111406569263
79,636231111406679350
79,636231111406784388
79,636231111406889438
79,636231111406994500
79,636231111407099392
79,636231111407199615
79,636231111407304494
79,636231111407409552
79,636231111407519631
79,636231111407624694
79,636231111407729923
79,636231111407834973
79,636231111407939857
79,636231111408044911
79,636231111408149974
79,636231111408255037
79,636231111408360083
79,636231111408465154
79,636231111408570418
79,636231111408675271
79,636231111408780330
79,636231111408885555
79,636231111408990614
79,636231111409095506
79,636231111409200735
79,636231111409305627
79,636231111409410681
79,636231111409515911
79,636231111409620786
79,636231111409726020
79,636231111409831087
79,636231111409935961
79,636231111410036205
79,636231111410141076
79,636231111410246318
79,636231111410351206
79,636231111410456247
79,636231111410561310
77,636231111410666373
77,636231111410771423
77,636231111410876486
77,636231111410981557
77,636231111411086620
77,636231111411191841
77,636231111411301903
77,636231111411406803
77,636231111411511840
77,636231111411617078
77,636231111411722141
77,636231111411827029
77,636231111411932263
77,636231111412037150
77,636231111412142196
77,636231111412252253
77,636231111412357312
77,636231111412467369
77,636231111412577435
77,636231111412682673
77,636231111412787565
77,636231111412892632
77,636231111412997686
77,636231111413102745
77,636231111413207970
77,636231111413313029
77,636231111413417899
77,636231111413523146
77,636231111413628012
77,636231111413738095
77,636231111413843140
77,636231111413948216
77,636231111414053258
77,636231111414158312
77,636231111414263388
77,636231111414368433
77,636231111414478520
77,636231111414583737
77,636231111414693816
77,636231111414798891
77,636231111414903740
77,636231111415008786
77,636231111415113845
77,636231111415219083
77,636231111415323962
77,636231111415434028
77,636231111415539099
77,636231111415644153
77,636231111415744384
77,636231111415849259
77,636231111415954331
77,636231111416059368
77,636231111416164619
77,636231111416274672
77,636231111416379739
77,636231111416484614
77,636231111416589685
77,636231111416694910
77,636231111416804967
77,636231111416909859
77,636231111417015110
77,636231111417120152
77,636231111417225018
77,636231111417335101
77,636231111417440142
77,636231111417545385
77,636231111417650443
77,636231111417755322
77,636231111417860377
77,636231111417965619
77,636231111418070498
77,636231111418175736
77,636231111418280624
77,636231111418385699
77,636231111418490732
77,636231111418595787
77,636231111418705852
75,636231111418810924
75,636231111418915987
75,636231111419021024
75,636231111419126095
75,636231111419231162
75,636231111419336204
75,636231111419441262
75,636231111419546334
75,636231111419656382
75,636231111419761437
75,636231111419866512
75,636231111419976753
75,636231111420086806
75,636231111420191856
75,636231111420296940
75,636231111420401811
75,636231111420507036
75,636231111420611911
75,636231111420717158
75,636231111420822045
75,636231111420932273
75,636231111421037165
75,636231111421142211
75,636231111421247453
75,636231111421357322
75,636231111421462390
75,636231111421567444
75,636231111421672691
75,636231111421777582
75,636231111421882808
75,636231111421987700
75,636231111422092925
75,636231111422197979
75,636231111422302858
75,636231111422408097
75,636231111422512993
75,636231111422618214
75,636231111422723106
75,636231111422828160
75,636231111422928395
75,636231111423033450
75,636231111423138329
75,636231111423243571
75,636231111423348441
75,636231111423458499
75,636231111423563741
75,636231111423673636
75,636231111423778681
75,636231111423883740
75,636231111423988982
75,636231111424094041
75,636231111424199095
75,636231111424303974
75,636231111424409033
75,636231111424514104
75,636231111424619159
75,636231111424724217
75,636231111424829267
75,636231111424934334
75,636231111425039564
75,636231111425144477
75,636231111425249715
75,636231111425354560
75,636231111425459636
75,636231111425564695
75,636231111425674747
75,636231111425784796
75,636231111425890034
75,636231111425994917
75,636231111426100156
75,636231111426210050
75,636231111426315276
75,636231111426420343
75,636231111426525427
75,636231111426635283
75,636231111426745511
75,636231111426850578
74,636231111426955466
74,636231111427060516
74,636231111427170761
74,636231111427275811
74,636231111427380703
74,636231111427480947
74,636231111427590799
74,636231111427695875
74,636231111427801104
74,636231111427906167
74,636231111428011037
74,636231111428116147
74,636231111428221343
74,636231111428326393
74,636231111428431456
74,636231111428536348
74,636231111428646396
74,636231111428751634
74,636231111428856513
74,636231111428966605
74,636231111429076645
74,636231111429181690
74,636231111429286749
74,636231111429391808
74,636231111429496883
74,636231111429607128
74,636231111429712003
74,636231111429822236
74,636231111429932113
74,636231111430037193
74,636231111430142243
74,636231111430247310
74,636231111430352536
74,636231111430457406
74,636231111430562640
74,636231111430667716
74,636231111430772757
74,636231111430877820
74,636231111430982690
74,636231111431087937
74,636231111431192829
74,636231111431297875
74,636231111431403113
74,636231111431508193
74,636231111431613286
74,636231111431718122
74,636231111431828179
74,636231111431933242
74,636231111432038330
74,636231111432143368
74,636231111432248584
74,636231111432353476
74,636231111432458702
74,636231111432563760
74,636231111432668652
74,636231111432773882
74,636231111432878940
74,636231111432984007
74,636231111433089053
74,636231111433193936
74,636231111433298999
74,636231111433404071
74,636231111433509104
74,636231111433614346
74,636231111433719409
74,636231111433824288
74,636231111433934525
74,636231111434039588
74,636231111434144484
74,636231111434249534
74,636231111434354571
74,636231111434459698
74,636231111434564688
74,636231111434674771
74,636231111434779996
74,636231111434884884
74,636231111434989930
74,636231111435099995
74,636231111435205067
74,636231111435310117
74,636231111435415175
74,636231111435525232
74,636231111435630295
74,636231111435735362
74,636231111435840408
74,636231111435945646
74,636231111436050525
74,636231111436155584
74,636231111436260818
74,636231111436370879
74,636231111436475758
74,636231111436580825
74,636231111436685884
74,636231111436791118
74,636231111436896176
74,636231111437001068
74,636231111437106294
74,636231111437211173
74,636231111437316248
74,636231111437421315
74,636231111437526361
74,636231111437631428
74,636231111437736645
74,636231111437841742
74,636231111437951585
74,636231111438056636
74,636231111438161703
74,636231111438271828
74,636231111438377011
74,636231111438481894
74,636231111438587119
74,636231111438692011
74,636231111438797070
74,636231111438902133
74,636231111439007191
74,636231111439112229
74,636231111439217480
74,636231111439322350
74,636231111439427413
74,636231111439532463
74,636231111439637526
74,636231111439742606
74,636231111439847643
74,636231111439952702
74,636231111440057756
74,636231111440163024
74,636231111440272880
74,636231111440378118
74,636231111440488180
74,636231111440593050
74,636231111440698293
74,636231111440803189
74,636231111440908414
74,636231111441013289
74,636231111441118544
74,636231111441223585
74,636231111441328477
74,636231111441433540
74,636231111441538590
74,636231111441643649
74,636231111441748878
74,636231111441853783
74,636231111441958829
74,636231111442063875
74,636231111442173949
74,636231111442279178
74,636231111442384237
74,636231111442489129
74,636231111442594187
74,636231111442699225
74,636231111442804476
74,636231111442909530
74,636231111443014422
74,636231111443119651
74,636231111443224710
74,636231111443329769
74,636231111443434823
74,636231111443539715
74,636231111443644773
74,636231111443749815
74,636231111443854873
74,636231111443959928
74,636231111444065008
74,636231111444170066
74,636231111444275292
74,636231111444385374
74,636231111444495419
74,636231111444600477
74,636231111444705532
74,636231111444815409
74,636231111444920472
74,636231111445025543
74,636231111445130764
74,636231111445235665
74,636231111445340723
74,636231111445445949
74,636231111445550999
74,636231111445655874
74,636231111445760945
74,636231111445866038
74,636231111445971075
74,636231111446076116
74,636231111446181385
74,636231111446286229
74,636231111446391476
74,636231111446496364
74,636231111446601585
74,636231111446706648
74,636231111446811518
74,636231111446916581
74,636231111447021652
74,636231111447121883
74,636231111447226754
74,636231111447331813
74,636231111447436888
74,636231111447541930
74,636231111447647253
74,636231111447752051
74,636231111447857101
74,636231111447962181
74,636231111448067407
74,636231111448172294
74,636231111448277528
74,636231111448382587
74,636231111448487457
74,636231111448597518
74,636231111448702598
74,636231111448812651
74,636231111448917718
74,636231111449022751
74,636231111449122991
74,636231111449232890
74,636231111449337944
74,636231111449443011
74,636231111449548057
74,636231111449653107
74,636231111449758174
74,636231111449863237
74,636231111449968287
74,636231111450073359
74,636231111450178409
74,636231111450283476
74,636231111450388526
74,636231111450493580
74,636231111450598634
74,636231111450703689
74,636231111450808777
74,636231111450913695
74,636231111451014306
74,636231111451118754
74,636231111451219241
74,636231111451319690
74,636231111451424210
74,636231111451529808
74,636231111451632724
74,636231111451733485
74,636231111451834422
74,636231111451938634
74,636231111452039369
74,636231111452141439
74,636231111452243834
74,636231111452348910
74,636231111452450791
74,636231111452555106
74,636231111452665189
74,636231111452772227
74,636231111452875276
74,636231111452985213
74,636231111453089780
74,636231111453191469
74,636231111453292218
74,636231111453396849
74,636231111453501180
74,636231111453609809
74,636231111453710857
74,636231111453811760
74,636231111453917601
74,636231111454018606
74,636231111454123532
74,636231111454224669
74,636231111454329664
74,636231111454430613
74,636231111454531631
74,636231111454632209
74,636231111454732551
74,636231111454837939
74,636231111454938969
74,636231111455039393
74,636231111455141339
74,636231111455242198
74,636231111455342810
74,636231111455443695
74,636231111455544529
74,636231111455645552
74,636231111455754031
74,636231111455854352
74,636231111455954711
74,636231111456060287
74,636231111456165213
74,636231111456269156
74,636231111456374223
74,636231111456478982
74,636231111456583985
74,636231111456684503
74,636231111456786149
74,636231111456887342
74,636231111456988856
74,636231111457098422
74,636231111457199461
74,636231111457300124
74,636231111457405721
74,636231111457506684
74,636231111457607740
74,636231111457709720
74,636231111457810832
74,636231111457911512
74,636231111458012701
74,636231111458114112
74,636231111458214604
74,636231111458319675
74,636231111458424713
74,636231111458529788
74,636231111458630216
74,636231111458736900
74,636231111458837909
74,636231111458939158
74,636231111459039825
74,636231111459144738
74,636231111459249562
74,636231111459349780
74,636231111459450293
74,636231111459557083
74,636231111459659944
74,636231111459768586
74,636231111459869899
74,636231111459971721
74,636231111460073123
74,636231111460174458
74,636231111460276070
74,636231111460381706
74,636231111460482818
74,636231111460586269
74,636231111460687338
74,636231111460789848
74,636231111460891007
74,636231111460998973
74,636231111461108102
74,636231111461209492
74,636231111461310702
74,636231111461412084
74,636231111461518049
74,636231111461618780
74,636231111461720153
74,636231111461821308
74,636231111461922445
74,636231111462023733
74,636231111462125161
74,636231111462226307
74,636231111462328984
74,636231111462430943
74,636231111462532332
74,636231111462636792
74,636231111462741090
74,636231111462843292
74,636231111462944280
74,636231111463045670
74,636231111463147227
74,636231111463247676
74,636231111463351302
74,636231111463456361
74,636231111463561441
74,636231111463666495
74,636231111463771545
74,636231111463876595
74,636231111463981837
74,636231111464082056
74,636231111464187097
74,636231111464292160
74,636231111464397227
74,636231111464502294
74,636231111464612356
74,636231111464717581
74,636231111464822456
74,636231111464927510
74,636231111465032586
74,636231111465137649
74,636231111465242874
74,636231111465347753
74,636231111465457810
74,636231111465563057
74,636231111465668107
74,636231111465773003
74,636231111465878057
74,636231111465983120
74,636231111466088162
74,636231111466193220
74,636231111466298279
74,636231111466398519
74,636231111466503389
74,636231111466608482
74,636231111466713519
74,636231111466818578
74,636231111466923640
74,636231111467028686
74,636231111467133745
74,636231111467238820
74,636231111467343879
74,636231111467448955
74,636231111467553975
74,636231111467659059
74,636231111467764096
74,636231111467869159
74,636231111467974214
74,636231111468079285
74,636231111468184331
74,636231111468289411
74,636231111468394448
74,636231111468499506
74,636231111468604591
74,636231111468709641
74,636231111468814682
74,636231111468919766
74,636231111469024804
74,636231111469129858
74,636231111469234912
74,636231111469339988
74,636231111469445051
74,636231111469550092
74,636231111469655168
74,636231111469760205
74,636231111469865268
74,636231111469970322
74,636231111470075385
74,636231111470180440
74,636231111470290510
74,636231111470395568
74,636231111470500627
74,636231111470605685
74,636231111470710761
74,636231111470815794
74,636231111470920853
74,636231111471025915
74,636231111471130978
74,636231111471236033
74,636231111471341104
74,636231111471446158
74,636231111471551204
74,636231111471656267
74,636231111471761326
74,636231111471871387
74,636231111471976454
74,636231111472081504
74,636231111472186567
74,636231111472291621
74,636231111472396680
74,636231111472501738
74,636231111472606793
74,636231111472711860
74,636231111472817102
74,636231111472922152
74,636231111473027215
74,636231111473132274
74,636231111473237149
74,636231111473342220
74,636231111473452269
74,636231111473557511
74,636231111473662484
74,636231111473767453
74,636231111473872550
74,636231111473977557
74,636231111474082620
74,636231111474187696
74,636231111474292917
74,636231111474397975
74,636231111474503038
74,636231111474608097
74,636231111474712989
74,636231111474818214
74,636231111474923085
74,636231111475028331
74,636231111475133202
74,636231111475238286
74,636231111475343507
74,636231111475448382
74,636231111475553436
74,636231111475658525
74,636231111475763558
74,636231111475868817
74,636231111475973692
74,636231111476078725
74,636231111476183788
74,636231111476293849
74,636231111476394093
74,636231111476499147
74,636231111476604043
74,636231111476709153
74,636231111476809325
74,636231111476914383
74,636231111477019271
74,636231111477124500
74,636231111477229401
74,636231111477339620
74,636231111477444495
74,636231111477549549
74,636231111477654792
74,636231111477759667
74,636231111477864909
74,636231111477969886
74,636231111478079845
74,636231111478185105
74,636231111478290150
74,636231111478395038
74,636231111478505086
74,636231111478610333
74,636231111478715199
74,636231111478820271
74,636231111478925334
74,636231111479030559
74,636231111479135622
74,636231111479240680
74,636231111479345769
74,636231111479450614
74,636231111479555668
74,636231111479660744
74,636231111479765790
74,636231111479870861
74,636231111479975902
74,636231111480080965
74,636231111480186037
74,636231111480291262
74,636231111480396158
74,636231111480501195
74,636231111480606275
74,636231111480711313
74,636231111480816559
74,636231111480921618
74,636231111481026677
74,636231111481131735
74,636231111481236789
74,636231111481341681
74,636231111481446744
74,636231111481551786
74,636231111481656844
74,636231111481767085
74,636231111481871977
74,636231111481977249
74,636231111482082098
74,636231111482192348
74,636231111482297218
74,636231111482402256
74,636231111482507502
74,636231111482612557
74,636231111482717513
74,636231111482822682
74,636231111482927566
74,636231111483032607
74,636231111483137858
74,636231111483242908
74,636231111483347792
74,636231111483457849
74,636231111483563091
74,636231111483667966
74,636231111483773024
74,636231111483878079
74,636231111483978327
74,636231111484083219
74,636231111484188478
74,636231111484293357
74,636231111484403560
74,636231111484508635
74,636231111484613493
74,636231111484718753
74,636231111484823627
74,636231111484928669
74,636231111485033749
74,636231111485138786
74,636231111485248847
74,636231111485353906
74,636231111485458965
74,636231111485564040
74,636231111485674097
74,636231111485784146
74,636231111485889209
74,636231111485994263
74,636231111486099330
74,636231111486199561
74,636231111486304432
74,636231111486409499
74,636231111486514549
74,636231111486619612
74,636231111486724666
74,636231111486829729
74,636231111486934788
74,636231111487039851
74,636231111487144918
74,636231111487249968
74,636231111487355022
74,636231111487460089
74,636231111487565332
74,636231111487675384
74,636231111487780293
74,636231111487885313
74,636231111487990385
74,636231111488095431
74,636231111488200677
74,636231111488305565
74,636231111488410606
74,636231111488515862
74,636231111488620749
74,636231111488725970
74,636231111488830845
74,636231111488936092
74,636231111489040979
74,636231111489146047
74,636231111489256099
74,636231111489366327
74,636231111489471215
74,636231111489576261
74,636231111489681315
74,636231111489786395
74,636231111489891432
74,636231111489996499
74,636231111490101562
74,636231111490206612
74,636231111490316691
74,636231111490421732
74,636231111490526804
74,636231111490631849
74,636231111490736904
74,636231111490841962
75,636231111490947021
75,636231111491052088
75,636231111491157138
75,636231111491262201
75,636231111491372271
75,636231111491477325
75,636231111491582388
75,636231111491687438
75,636231111491792501
75,636231111491897555
75,636231111492002610
75,636231111492107677
75,636231111492212740
75,636231111492317798
75,636231111492422853
75,636231111492527920
75,636231111492632961
75,636231111492738033
75,636231111492843078
75,636231111492953140
75,636231111493058207
75,636231111493163270
75,636231111493268320
75,636231111493373374
75,636231111493478454
75,636231111493583491
75,636231111493688558
75,636231111493793613
75,636231111493898667
75,636231111494003726
75,636231111494108797
75,636231111494218841
75,636231111494323909
75,636231111494428963
75,636231111494534026
75,636231111494639093
75,636231111494744143
75,636231111494849210
75,636231111494954264
75,636231111495059314
75,636231111495164373
75,636231111495269453
75,636231111495374503
75,636231111495484556
75,636231111495594621
75,636231111495699676
75,636231111495804730
75,636231111495909793
75,636231111496014847
75,636231111496119914
75,636231111496224964
75,636231111496330032
75,636231111496435082
75,636231111496540145
75,636231111496645203
75,636231111496750253
75,636231111496855316
75,636231111496960383
75,636231111497065442
75,636231111497170492
75,636231111497275550
75,636231111497385616
75,636231111497495682
75,636231111497600736
75,636231111497710806
75,636231111497815856
75,636231111497920915
75,636231111498025990
75,636231111498131027
75,636231111498231276
75,636231111498336150
75,636231111498441226
75,636231111498546259
75,636231111498651322
75,636231111498756560
75,636231111498861619
75,636231111498966699
75,636231111499071757
75,636231111499176623
75,636231111499286676
75,636231111499391739
75,636231111499496793
75,636231111499597037
75,636231111499707090
75,636231111499811965
74,636231111499917028
74,636231111500022103
74,636231111500127141
74,636231111500232204
74,636231111500337442
74,636231111500442325
74,636231111500547392
74,636231111500652434
74,636231111500762529
74,636231111500867575
74,636231111500967819
74,636231111501072668
74,636231111501177910
74,636231111501282789
74,636231111501393039
74,636231111501497927
74,636231111501602994
74,636231111501708044
74,636231111501813085
74,636231111501913342
74,636231111502023202
74,636231111502128257
74,636231111502233320
74,636231111502338400
74,636231111502443437
74,636231111502548512
74,636231111502653550
74,636231111502758612
74,636231111502863680
74,636231111502968725
74,636231111503073793
74,636231111503178843
74,636231111503283905
74,636231111503388960
74,636231111503494027
74,636231111503604088
74,636231111503709143
74,636231111503814197
74,636231111503919264
74,636231111504029317
74,636231111504134388
74,636231111504239434
74,636231111504344501
74,636231111504449564
74,636231111504554631
74,636231111504659690
74,636231111504764727
74,636231111504869803
74,636231111504974848
74,636231111505079903
74,636231111505184966
74,636231111505295044
74,636231111505400103
74,636231111505505148
74,636231111505615210
74,636231111505720268
74,636231111505825323
74,636231111505930386
74,636231111506035632
74,636231111506140503
74,636231111506245553
74,636231111506355631
74,636231111506460673
74,636231111506565753
74,636231111506670803
74,636231111506780877
74,636231111506885914
74,636231111506990986
74,636231111507096027
74,636231111507201090
74,636231111507306157
74,636231111507411216
74,636231111507516262
74,636231111507626323
74,636231111507731394
74,636231111507836444
74,636231111507941499
74,636231111508046562
74,636231111508151624
74,636231111508256674
74,636231111508361746
74,636231111508466800
74,636231111508571854
74,636231111508676930
74,636231111508781972
74,636231111508887035
74,636231111508992093
74,636231111509097143
74,636231111509202210
74,636231111509307277
74,636231111509412323
74,636231111509517390
74,636231111509622445
74,636231111509732498
73,636231111509837565
73,636231111509942619
73,636231111510047678
73,636231111510152736
73,636231111510257803
73,636231111510362853
73,636231111510467908
73,636231111510572979
73,636231111510678029
73,636231111510783246
73,636231111510893312
73,636231111510998366
73,636231111511103424
73,636231111511208479
73,636231111511313550
73,636231111511418604
73,636231111511523667
73,636231111511633729
73,636231111511743782
73,636231111511848840
73,636231111511953912
73,636231111512059137
73,636231111512164110
73,636231111512269070
73,636231111512379315
73,636231111512484194
73,636231111512589433
73,636231111512699503
73,636231111512804557
73,636231111512909453
73,636231111513014490
73,636231111513119549
73,636231111513219788
73,636231111513324659
73,636231111513429910
73,636231111513534960
73,636231111513639852
73,636231111513744898
73,636231111513850140
73,636231111513955032
73,636231111514060257
73,636231111514165136
73,636231111514270374
73,636231111514375433
73,636231111514480333
73,636231111514585550
73,636231111514690451
73,636231111514795676
73,636231111514900726
73,636231111515005613
73,636231111515110659
73,636231111515215731
73,636231111515320785
73,636231111515425835
73,636231111515530894
73,636231111515635952
73,636231111515741011
73,636231111515851072
73,636231111515956148
73,636231111516061206
73,636231111516166244
73,636231111516271307
73,636231111516376361
73,636231111516481424
73,636231111516586491
73,636231111516691549
73,636231111516796599
73,636231111516901667
73,636231111517006717
73,636231111517111780
73,636231111517216838
73,636231111517321892
73,636231111517427135
73,636231111517537008
73,636231111517642084
73,636231111517752128
73,636231111517852372
73,636231111517957431
73,636231111518062301
73,636231111518167552
73,636231111518272427
73,636231111518377477
73,636231111518482561
73,636231111518587778
73,636231111518692670
71,636231111518797728
71,636231111518902958
71,636231111519007828
71,636231111519112891
71,636231111519217946
71,636231111519323038
71,636231111519428071
71,636231111519533126
71,636231111519643392
71,636231111519753253
71,636231111519858320
71,636231111519963366
71,636231111520068420
71,636231111520173500
71,636231111520278725
71,636231111520383788
71,636231111520493845
71,636231111520598733
71,636231111520708807
71,636231111520813836
71,636231111520919091
71,636231111521023974
71,636231111521129028
71,636231111521234087
71,636231111521339137
71,636231111521444196
71,636231111521549271
71,636231111521659307
71,636231111521769368
71,636231111521874444
71,636231111521979503
71,636231111522084566
71,636231111522189624
71,636231111522294850
71,636231111522399908
71,636231111522504962
71,636231111522610030
71,636231111522715084
71,636231111522820147
71,636231111522925201
71,636231111523030089
71,636231111523135134
71,636231111523240189
71,636231111523345252
71,636231111523450336
71,636231111523560380
71,636231111523665430
71,636231111523770502
71,636231111523875761
71,636231111523980619
71,636231111524085844
71,636231111524190736
71,636231111524295782
71,636231111524401033
71,636231111524506087
71,636231111524610953
71,636231111524721216
71,636231111524826090
71,636231111524936135
71,636231111525036374
71,636231111525141279
71,636231111525251332
71,636231111525356386
71,636231111525461440
71,636231111525566503
71,636231111525671562
71,636231111525776629
71,636231111525881846
71,636231111525986939
71,636231111526091796
71,636231111526196842
71,636231111526301918
71,636231111526407143
71,636231111526512031
71,636231111526617076
70,636231111526722152
70,636231111526827189
70,636231111526932248
70,636231111527037323
70,636231111527142386
70,636231111527247428
70,636231111527357489
70,636231111527467559
70,636231111527567795
70,636231111527672661
70,636231111527777732
70,636231111527882795
70,636231111527993053
70,636231111528103119
70,636231111528208182
70,636231111528313018
70,636231111528418089
70,636231111528523319
70,636231111528628390
70,636231111528733436
70,636231111528843331
70,636231111528948556
70,636231111529053444
70,636231111529158506
70,636231111529263552
70,636231111529368624
70,636231111529473691
70,636231111529578912
70,636231111529683975
70,636231111529788858
70,636231111529893899
70,636231111529994173
70,636231111530099018
70,636231111530204273
70,636231111530309135
70,636231111530414386
70,636231111530519274
70,636231111530624311
70,636231111530729378
70,636231111530834445
70,636231111530939491
70,636231111531044640
70,636231111531149792
70,636231111531254675
70,636231111531359738
70,636231111531464788
70,636231111531569856
70,636231111531674897
70,636231111531779968
70,636231111531885027
70,636231111531990073
70,636231111532095148
70,636231111532200395
70,636231111532305249
70,636231111532415494
70,636231111532520369
70,636231111532625448
70,636231111532730481
70,636231111532840551
70,636231111532945610
70,636231111533050660
70,636231111533155719
70,636231111533260777
70,636231111533361021
70,636231111533465892
70,636231111533571138
70,636231111533676022
70,636231111533781084
71,636231111533886126
71,636231111533996192
71,636231111534101254
71,636231111534206309
71,636231111534311367
71,636231111534416434
71,636231111534521489
71,636231111534621741
71,636231111534726779
71,636231111534831658
71,636231111534936716
71,636231111535041800
71,636231111535147026
71,636231111535252076
71,636231111535356963
71,636231111535462201
71,636231111535567080
71,636231111535672126
71,636231111535777185
71,636231111535887250
71,636231111535992322
71,636231111536097372
71,636231111536202439
71,636231111536302687
71,636231111536407549
71,636231111536512595
71,636231111536617654
71,636231111536722729
71,636231111536832791
71,636231111536937832
71,636231111537043070
71,636231111537147962
71,636231111537253200
71,636231111537358079
71,636231111537463138
71,636231111537568372
71,636231111537673259
71,636231111537778314
71,636231111537883359
71,636231111537988598
71,636231111538093489
71,636231111538198548
71,636231111538303611
71,636231111538408849
71,636231111538518714
71,636231111538628771
71,636231111538733829
71,636231111538839076
71,636231111538943947
71,636231111539049198
71,636231111539154175
71,636231111539259311
71,636231111539364373
71,636231111539469257
71,636231111539574503
71,636231111539679545
71,636231111539784437
71,636231111539894477
71,636231111539999535
71,636231111540104620
71,636231111540214694
71,636231111540319714
71,636231111540424798
71,636231111540529852
71,636231111540634894
71,636231111540739948
71,636231111540845028
71,636231111540950087
72,636231111541055316
72,636231111541160200
72,636231111541265258
72,636231111541370492
72,636231111541475551
72,636231111541580421
72,636231111541685476
72,636231111541790543
72,636231111541895610
72,636231111542000839
72,636231111542105894
72,636231111542215959
72,636231111542320847
72,636231111542426085
72,636231111542530973
72,636231111542641017
72,636231111542746165
72,636231111542851147
72,636231111542956210
72,636231111543061247
72,636231111543166485
72,636231111543271552
72,636231111543376436
72,636231111543486489
72,636231111543591727
72,636231111543696790
72,636231111543801844
72,636231111543906898
72,636231111544011773
72,636231111544116853
72,636231111544227085
72,636231111544331956
72,636231111544437019
72,636231111544542073
72,636231111544647132
72,636231111544752378
72,636231111544862269
72,636231111544967331
72,636231111545072364
72,636231111545177440
72,636231111545282486
72,636231111545392547
72,636231111545497619
72,636231111545602664
72,636231111545707744
72,636231111545817780
72,636231111545922839
72,636231111546027910
72,636231111546132964
72,636231111546243039
72,636231111546348076
72,636231111546453139
72,636231111546558206
72,636231111546663269
72,636231111546768310
72,636231111546873369
72,636231111546978440
72,636231111547083499
72,636231111547188553
72,636231111547293620
72,636231111547403669
72,636231111547508740
72,636231111547613782
72,636231111547718853
72,636231111547823903
72,636231111547928970
72,636231111548034033
72,636231111548139075
72,636231111548239319
73,636231111548344210
73,636231111548449265
73,636231111548559326
73,636231111548664372
73,636231111548769426
73,636231111548874485
73,636231111548979569
73,636231111549084632
73,636231111549194672
73,636231111549299726
73,636231111549404781
73,636231111549514846
73,636231111549619922
73,636231111549724963
73,636231111549830031
73,636231111549935089
73,636231111550040139
73,636231111550145202
73,636231111550255259
73,636231111550365500
73,636231111550470396
73,636231111550575433
73,636231111550680513
73,636231111550785551
73,636231111550895650
73,636231111551000688
73,636231111551105733
73,636231111551210788
73,636231111551315851
73,636231111551420922
73,636231111551525985
73,636231111551631026
73,636231111551741101
73,636231111551851162
73,636231111551951393
73,636231111552056276
73,636231111552161519
73,636231111552266381
73,636231111552371623
73,636231111552476515
73,636231111552581740
73,636231111552686636
73,636231111552796860
73,636231111552906738
73,636231111553011831
73,636231111553116864
73,636231111553226921
73,636231111553331988
73,636231111553437034
73,636231111553542096
73,636231111553647172
73,636231111553752226
73,636231111553857460
73,636231111553962536
73,636231111554067398
73,636231111554172628
73,636231111554277511
73,636231111554382578
73,636231111554487803
73,636231111554597677
73,636231111554702757
73,636231111554807794
73,636231111554912878
73,636231111555022918
73,636231111555133168
73,636231111555238038
73,636231111555343105
73,636231111555453162
73,636231111555563241
73,636231111555668282
73,636231111555773337
74,636231111555883603
74,636231111555988456
74,636231111556093515
74,636231111556198569
74,636231111556303816
74,636231111556408712
74,636231111556513762
74,636231111556619000
74,636231111556728874
74,636231111556838944
74,636231111556949009
74,636231111557054239
74,636231111557159109
74,636231111557264172
74,636231111557369227
74,636231111557479476
74,636231111557584364
74,636231111557694408
74,636231111557799655
74,636231111557904521
74,636231111558009579
74,636231111558114638
74,636231111558219697
74,636231111558324948
74,636231111558429839
74,636231111558534889
74,636231111558635116
74,636231111558739995
74,636231111558845233
74,636231111558955111
74,636231111559060182
74,636231111559165237
74,636231111559270471
74,636231111559375341
74,636231111559480588
74,636231111559585646
74,636231111559690525
74,636231111559795593
74,636231111559900844
74,636231111560005697
74,636231111560115788
74,636231111560220817
74,636231111560325871
74,636231111560430930
74,636231111560536001
74,636231111560641047
74,636231111560746294
74,636231111560856355
74,636231111560966416
74,636231111561071291
74,636231111561181353
74,636231111561286432
74,636231111561391470
74,636231111561496528
74,636231111561601600
74,636231111561706641
74,636231111561811909
74,636231111561916951
74,636231111562021821
74,636231111562126876
74,636231111562231943
74,636231111562336993
74,636231111562442244
74,636231111562547131
74,636231111562652357
76,636231111562757420
76,636231111562862290
76,636231111562967537
76,636231111563072407
76,636231111563177654
76,636231111563287544
76,636231111563392594
76,636231111563497666
76,636231111563602716
76,636231111563707761
76,636231111563808027
76,636231111563912889
76,636231111564017934
76,636231111564123203
76,636231111564228052
76,636231111564338169
76,636231111564443172
76,636231111564548243
76,636231111564653473
76,636231111564758557
76,636231111564863590
76,636231111564968644
76,636231111565073519
76,636231111565178766
76,636231111565283824
76,636231111565388699
76,636231111565493946
76,636231111565599004
76,636231111565708895
76,636231111565813957
76,636231111565918995
76,636231111566024276
76,636231111566129330
76,636231111566234188
76,636231111566339413
76,636231111566444476
76,636231111566554366
76,636231111566664406
76,636231111566769482
76,636231111566879530
76,636231111566984769
76,636231111567089844
76,636231111567199705
76,636231111567304960
76,636231111567409826
76,636231111567515069
76,636231111567619943
76,636231111567725006
76,636231111567835059
76,636231111567940122
76,636231111568045364
76,636231111568150449
76,636231111568255481
76,636231111568360373
76,636231111568465415
76,636231111568565654
76,636231111568670529
76,636231111568775588
76,636231111568880663
76,636231111568985705
76,636231111569095762
76,636231111569201026
76,636231111569305896
76,636231111569411126
76,636231111569516193
76,636231111569621277
76,636231111569726131
76,636231111569831189
76,636231111569941264
77,636231111570046296
77,636231111570151351
77,636231111570256597
77,636231111570361468
77,636231111570466531
77,636231111570576772
77,636231111570686666
77,636231111570791712
77,636231111570896959
77,636231111571002035
77,636231111571106884
77,636231111571211942
77,636231111571317193
77,636231111571422077
77,636231111571527144
77,636231111571632198
77,636231111571737239
77,636231111571842482
77,636231111571947374
77,636231111572052603
77,636231111572157482
77,636231111572262545
77,636231111572367612
77,636231111572477862
77,636231111572582899
77,636231111572687962
77,636231111572797848
77,636231111572902890
77,636231111573007944
77,636231111573118018
77,636231111573223089
77,636231111573328131
77,636231111573433207
77,636231111573538257
77,636231111573648493
77,636231111573753548
77,636231111573858444
77,636231111573963481
77,636231111574068535
77,636231111574173598
77,636231111574278657
77,636231111574383904
77,636231111574488958
77,636231111574594012
77,636231111574704091
77,636231111574809136
77,636231111574914007
77,636231111575019275
77,636231111575124133
77,636231111575229183
77,636231111575334425
77,636231111575439304
77,636231111575549558
77,636231111575659440
77,636231111575764481
77,636231111575869741
77,636231111575974620
77,636231111576079845
77,636231111576184737
77,636231111576289804
77,636231111576394854
77,636231111576500084
77,636231111576609965
77,636231111576720228
77,636231111576825291
77,636231111576930144
77,636231111577035408
77,636231111577140466
77,636231111577245320
77,636231111577355373
77,636231111577460431
77,636231111577565490
77,636231111577670557
77,636231111577775611
77,636231111577880854
77,636231111577990727
77,636231111578095974
77,636231111578200844
77,636231111578305898
79,636231111578410987
79,636231111578516020
79,636231111578621091
79,636231111578726146
79,636231111578831191
79,636231111578936254
79,636231111579046311
