87,636231111010167920
87,636231111010338186
87,636231111010503308
87,636231111010668404
87,636231111010838298
87,636231111011003390
87,636231111011173485
87,636231111011338765
87,636231111011503665
87,636231111011673956
87,636231111011838873
87,636231111012003944
87,636231111012174060
87,636231111012339323
87,636231111012509230
87,636231111012674322
87,636231111012839594
87,636231111013009509
87,636231111013174609
87,636231111013339693
87,636231111013510002
87,636231111013674901
87,636231111013844975
87,636231111014010251
87,636231111014175347
87,636231111014345249
87,636231111014510367
87,636231111014675630
87,636231111014845712
87,636231111015010809
87,636231111015180720
87,636231111015345837
87,636231111015511088
87,636231111015681024
87,636231111015846279
87,636231111016011367
87,636231111016181282
87,636231111016346365
87,636231111016516465
87,636231111016681796
87,636231111016846709
87,636231111017016816
87,636231111017181896
87,636231111017347171
87,636231111017517082
87,636231111017682187
87,636231111017852269
87,636231111018017379
87,636231111018182449
87,636231111018352600
87,636231111018517645
87,636231111018682908
87,636231111018852823
87,636231111019017924
87,636231111019188010
87,636231111019353106
87,636231111019518194
87,636231111019688289
87,636231111019853398
87,636231111020023476
87,636231111020188756
87,636231111020353844
87,636231111020523879
87,636231111020688868
87,636231111020853943
87,636231111021024051
87,636231111021189130
87,636231111021359225
87,636231111021524330
87,636231111021689585
87,636231111021859500
87,636231111022024797
87,636231111022189701
87,636231111022359779
87,636231111022524871
87,636231111022694966
87,636231111022860250
87,636231111023025150
87,636231111023195262
87,636231111023360525
87,636231111023525442
87,636231111023695541
87,636231111023860620
87,636231111024030715
87,636231111024195987
87,636231111024361113
87,636231111024531182
87,636231111024696270
87,636231111024861358
87,636231111025031286
87,636231111025196549
87,636231111025366473
87,636231111025531565
87,636231111025696824
87,636231111025866735
87,636231111026032011
87,636231111026197137
87,636231111026367039
87,636231111026532294
87,636231111026702205
87,636231111026867481
87,636231111027032577
87,636231111027202668
87,636231111027367589
87,636231111027532848
87,636231111027702947
87,636231111027868039
87,636231111028037946
87,636231111028203226
87,636231111028368314
87,636231111028538421
87,636231111028703505
87,636231111028868597
87,636231111029038687
87,636231111029203596
87,636231111029373691
87,636231111029538966
87,636231111029704067
87,636231111029873970
87,636231111030039113
87,636231111030204167
87,636231111030374441
87,636231111030539524
87,636231111030709440
87,636231111030874528
87,636231111031039804
87,636231111031209714
87,636231111031374811
87,636231111031539903
87,636231111031709994
87,636231111031875086
87,636231111032045180
87,636231111032210273
87,636231111032375369
87,636231111032545459
87,636231111032710552
87,636231111032875648
87,636231111033045743
87,636231111033210835
87,636231111033380930
87,636231111033546022
87,636231111033711118
87,636231111033881209
87,636231111034046309
87,636231111034211397
87,636231111034381492
87,636231111034546575
87,636231111034716683
87,636231111034881771
87,636231111035046863
87,636231111035216958
87,636231111035382054
87,636231111035552141
87,636231111035717237
87,636231111035882325
87,636231111036052424
87,636231111036217516
87,636231111036387671
87,636231111036552703
87,636231111036717791
87,636231111036887890
87,636231111037052978
87,636231111037218070
87,636231111037388160
87,636231111037553261
87,636231111037723351
87,636231111037888448
87,636231111038053536
87,636231111038223643
87,636231111038388727
87,636231111038553815
87,636231111038723909
87,636231111038889001
87,636231111039054089
87,636231111039224188
87,636231111039389280
87,636231111039559375
87,636231111039724472
87,636231111039889559
87,636231111040059650
87,636231111040224751
87,636231111040389838
87,636231111040559929
87,636231111040725021
87,636231111040895120
87,636231111041060217
87,636231111041225304
87,636231111041395399
87,636231111041560491
87,636231111041725583
87,636231111041895674
87,636231111042060770
87,636231111042230865
87,636231111042395957
87,636231111042566052
87,636231111042731140
87,636231111042896236
87,636231111043066327
87,636231111043231419
87,636231111043396520
87,636231111043566610
87,636231111043731907
87,636231111043896803
87,636231111044066885
87,636231111044231985
87,636231111044402085
87,636231111044567172
87,636231111044732260
87,636231111044902355
87,636231111045067451
87,636231111045232531
87,636231111045402630
87,636231111045567722
87,636231111045733002
87,636231111045903093
87,636231111046068001
87,636231111046238113
87,636231111046403192
87,636231111046568280
87,636231111046738375
87,636231111046903651
87,636231111047073566
87,636231111047238654
87,636231111047403930
87,636231111047573853
87,636231111047738937
87,636231111047904230
87,636231111048074304
87,636231111048239229
87,636231111048409311
87,636231111048574407
87,636231111048739495
87,636231111048909590
87,636231111049074887
87,636231111049239988
87,636231111049409869
87,636231111049575145
87,636231111049745052
87,636231111049910148
87,636231111050075424
87,636231111050245331
87,636231111050410440
87,636231111050575532
87,636231111050745631
87,636231111050910714
87,636231111051080796
87,636231111051246102
87,636231111051411169
87,636231111051581093
87,636231111051746351
87,636231111051916262
87,636231111052081367
87,636231111052246464
87,636231111052416541
87,636231111052581633
87,636231111052746726
87,636231111052916829
87,636231111053082131
87,636231111053252007
87,636231111053417288
87,636231111053582191
87,636231111053752308
87,636231111053917383
87,636231111054082492
87,636231111054252753
87,636231111054417846
87,636231111054587757
87,636231111054753037
87,636231111054917936
87,636231111055088048
87,636231111055253333
87,636231111055418232
87,636231111055588494
87,636231111055753590
87,636231111055923497
87,636231111056088782
87,636231111056253861
87,636231111056423887
87,636231111056589052
87,636231111056754157
87,636231111056924059
87,636231111057089164
87,636231111057259246
87,636231111057424373
87,636231111057589431
87,636231111057759581
87,636231111057924797
87,636231111058089722
87,636231111058259817
87,636231111058424909
87,636231111058594991
87,636231111058760083
87,636231111058925180
87,636231111059095283
87,636231111059260375
87,636231111059425677
87,636231111059595558
87,636231111059760654
87,636231111059930749
87,636231111060095837
87,636231111060260938
87,636231111060431199
87,636231111060596287
87,636231111060761383
87,636231111060931294
87,636231111061096382
87,636231111061266477
87,636231111061431783
87,636231111061596682
87,636231111061766953
87,636231111061932036
87,636231111062096957
87,636231111062267227
87,636231111062432311
87,636231111062602226
87,636231111062767322
87,636231111062932410
87,636231111063102509
87,636231111063267597
87,636231111063432685
87,636231111063602780
87,636231111063767868
87,636231111063937984
87,636231111064103059
87,636231111064268151
87,636231111064438430
87,636231111064603338
87,636231111064768618
87,636231111064938709
87,636231111065103630
87,636231111065273712
87,636231111065438804
87,636231111065603896
87,636231111065773995
87,636231111065939087
87,636231111066109182
87,636231111066274287
87,636231111066439362
87,636231111066609457
87,636231111066774557
87,636231111066939658
87,636231111067109740
87,636231111067274836
87,636231111067439924
87,636231111067610015
87,636231111067775111
87,636231111067945206
87,636231111068110298
87,636231111068275394
87,636231111068445481
87,636231111068610573
87,636231111068780672
87,636231111068945760
87,636231111069110852
87,636231111069280955
87,636231111069446043
87,636231111069611131
87,636231111069781230
87,636231111069946326
87,636231111070116417
87,636231111070281509
87,636231111070446609
87,636231111070616691
87,636231111070781801
87,636231111070946893
87,636231111071116983
87,636231111071282071
87,636231111071452166
87,636231111071617438
87,636231111071782560
87,636231111071952646
87,636231111072117721
87,636231111072282804
87,636231111072452737
87,636231111072617996
87,636231111072787902
87,636231111072953183
87,636231111073118292
87,636231111073288181
87,636231111073453295
87,636231111073618562
87,636231111073788469
87,636231111073953557
87,636231111074123652
87,636231111074288739
87,636231111074453836
87,636231111074623931
87,636231111074789023
87,636231111074954115
87,636231111075124210
87,636231111075289302
87,636231111075459401
87,636231111075624493
87,636231111075789589
87,636231111075959680
87,636231111076124776
87,636231111076289864
87,636231111076459959
87,636231111076625047
87,636231111076795141
87,636231111076960242
87,636231111077125326
87,636231111077295420
87,636231111077460517
87,636231111077625600
87,636231111077795704
87,636231111077960796
87,636231111078130886
87,636231111078295983
87,636231111078461075
87,636231111078631161
87,636231111078796262
87,636231111078961354
87,636231111079131449
87,636231111079296536
87,636231111079466627
87,636231111079631719
87,636231111079796815
87,636231111079966906
87,636231111080132002
87,636231111080297090
87,636231111080467189
87,636231111080632277
87,636231111080802380
87,636231111080967464
87,636231111081132560
87,636231111081302655
87,636231111081467743
87,636231111081637842
87,636231111081802934
87,636231111081968026
87,636231111082138117
87,636231111082303213
87,636231111082468310
87,636231111082638404
87,636231111082803497
87,636231111082973587
87,636231111083138683
87,636231111083303771
87,636231111083473870
87,636231111083638958
87,636231111083804050
87,636231111083974145
87,636231111084139241
87,636231111084309332
87,636231111084474424
87,636231111084639520
87,636231111084809611
87,636231111084974703
87,636231111085139795
87,636231111085309890
87,636231111085474982
87,636231111085645077
87,636231111085810173
87,636231111085975261
87,636231111086145356
87,636231111086310444
87,636231111086475532
87,636231111086645635
87,636231111086810727
87,636231111086980822
87,636231111087145910
87,636231111087311010
87,636231111087481135
87,636231111087646206
87,636231111087811289
87,636231111087981376
87,636231111088146472
87,636231111088316567
87,636231111088481838
87,636231111088646764
87,636231111088816863
87,636231111088981951
87,636231111089152033
87,636231111089317138
87,636231111089482213
87,636231111089652307
87,636231111089817417
87,636231111089982509
87,636231111090152779
87,636231111090317871
87,636231111090487773
87,636231111090652865
87,636231111090817962
87,636231111090988065
87,636231111091153162
87,636231111091318237
87,636231111091488549
87,636231111091653612
87,636231111091823518
87,636231111091988619
87,636231111092153720
87,636231111092323861
87,636231111092488907
87,636231111092653986
87,636231111092824269
87,636231111092989177
87,636231111093159263
87,636231111093324543
87,636231111093489447
87,636231111093659564
87,636231111093824827
87,636231111093989919
87,636231111094159817
87,636231111094325101
87,636231111094495017
87,636231111094660288
87,636231111094825192
87,636231111094995313
87,636231111095160392
87,636231111095325655
87,636231111095495771
87,636231111095660864
87,636231111095830753
87,636231111095996033
87,636231111096161121
87,636231111096331036
87,636231111096496141
87,636231111096661225
87,636231111096831495
87,636231111096996617
87,636231111097166507
87,636231111097331689
87,636231111097496870
87,636231111097666974
87,636231111097832053
87,636231111097996961
87,636231111098167056
87,636231111098332332
87,636231111098502256
87,636231111098667523
87,636231111098832423
87,636231111099002526
87,636231111099167623
87,636231111099337709
87,636231111099502818
87,636231111099668073
87,636231111099837988
87,636231111100003089
87,636231111100168193
87,636231111100338451
87,636231111100503543
87,636231111100673458
87,636231111100838734
87,636231111101003638
87,636231111101173737
87,636231111101339017
87,636231111101503934
87,636231111101674200
87,636231111101839121
87,636231111102004380
87,636231111102174505
87,636231111102339567
87,636231111102509593
87,636231111102674600
87,636231111102839679
87,636231111103009761
87,636231111103174866
87,636231111103344944
87,636231111103510224
87,636231111103675320
87,636231111103845244
87,636231111104010503
87,636231111104175591
87,636231111104345703
87,636231111104510594
87,636231111104680689
87,636231111104845969
87,636231111105010873
87,636231111105181164
87,636231111105346081
87,636231111105511182
87,636231111105681247
87,636231111105846535
87,636231111106016446
87,636231111106181534
87,636231111106346810
87,636231111106516734
87,636231111106681826
87,636231111106847085
87,636231111107017175
87,636231111107182084
87,636231111107352183
87,636231111107517480
87,636231111107682547
87,636231111107852466
87,636231111108017751
87,636231111108182642
87,636231111108352754
86,636231111108517841
86,636231111108687928
86,636231111108853208
86,636231111109018296
86,636231111109188203
86,636231111109353478
86,636231111109518404
86,636231111109688486
86,636231111109853595
86,636231111110023673
86,636231111110188953
86,636231111110354041
86,636231111110523994
86,636231111110689232
86,636231111110854320
86,636231111111024415
86,636231111111189319
86,636231111111359418
86,636231111111524689
86,636231111111689790
86,636231111111859697
86,636231111112024793
86,636231111112189881
86,636231111112359993
86,636231111112525273
86,636231111112695163
86,636231111112860443
86,636231111113025535
86,636231111113195454
86,636231111113360551
86,636231111113530629
86,636231111113695716
86,636231111113860992
86,636231111114031096
86,636231111114195995
86,636231111114366094
86,636231111114531375
86,636231111114696291
86,636231111114866369
86,636231111115031645
86,636231111115196741
86,636231111115366648
86,636231111115531753
86,636231111115696845
86,636231111115867120
86,636231111116032024
86,636231111116202123
86,636231111116367429
86,636231111116532303
86,636231111116702410
86,636231111116867502
86,636231111117032765
86,636231111117202676
86,636231111117367768
86,636231111117537876
86,636231111117702955
86,636231111117868065
86,636231111118038147
86,636231111118203239
86,636231111118368536
86,636231111118538426
86,636231111118703513
86,636231111118873613
86,636231111119038717
86,636231111119203972
86,636231111119374071
86,636231111119538996
86,636231111119704071
86,636231111119874166
86,636231111120039254
86,636231111120209353
86,636231111120374445
86,636231111120539743
86,636231111120709645
86,636231111120874925
86,636231111121040004
86,636231111121209924
86,636231111121374995
86,636231111121545098
86,636231111121710190
86,636231111121875299
86,636231111122045565
86,636231111122210473
86,636231111122380568
86,636231111122545660
86,636231111122710962
86,636231111122880847
86,636231111123045935
86,636231111123211023
86,636231111123381344
86,636231111123546240
86,636231111123716309
86,636231111123881422
85,636231111124046677
85,636231111124216597
85,636231111124381701
85,636231111124546768
85,636231111124716876
85,636231111124881968
85,636231111125047060
85,636231111125217167
85,636231111125382251
85,636231111125552333
85,636231111125717425
85,636231111125882705
85,636231111126052625
85,636231111126217717
85,636231111126382813
85,636231111126552912
85,636231111126718026
85,636231111126888142
85,636231111127053183
85,636231111127218266
85,636231111127388536
85,636231111127553633
85,636231111127723544
85,636231111127888640
85,636231111128053912
85,636231111128223827
85,636231111128388915
85,636231111128554033
85,636231111128724298
85,636231111128889292
85,636231111129059284
85,636231111129224381
85,636231111129389473
85,636231111129559568
85,636231111129724664
85,636231111129889748
85,636231111130059847
85,636231111130224935
85,636231111130395029
85,636231111130560126
85,636231111130725243
85,636231111130895321
85,636231111131060409
85,636231111131225505
85,636231111131395596
85,636231111131560684
85,636231111131730779
85,636231111131896016
85,636231111132060984
85,636231111132231177
85,636231111132396150
85,636231111132561430
85,636231111132731337
85,636231111132896613
85,636231111133066524
85,636231111133231637
85,636231111133396708
85,636231111133566803
85,636231111133732091
85,636231111133901989
85,636231111134067086
85,636231111134232357
85,636231111134402268
85,636231111134567544
85,636231111134732632
85,636231111134902565
85,636231111135067635
85,636231111135237734
85,636231111135403036
85,636231111135567914
85,636231111135738009
85,636231111135903101
85,636231111136068377
85,636231111136238476
85,636231111136403573
85,636231111136573475
85,636231111136738571
85,636231111136903668
85,636231111137073763
85,636231111137238872
85,636231111137404131
85,636231111137574054
85,636231111137739309
85,636231111137909220
85,636231111138074312
85,636231111138239588
85,636231111138409503
85,636231111138574779
85,636231111138739884
85,636231111138909795
85,636231111139074900
85,636231111139244965
85,636231111139410288
85,636231111139575170
85,636231111139745265
85,636231111139910340
85,636231111140075612
85,636231111140245544
85,636231111140410816
85,636231111140580714
85,636231111140745819
85,636231111140910898
85,636231111141081006
85,636231111141246273
85,636231111141411173
85,636231111141581268
85,636231111141746552
85,636231111141916472
85,636231111142081739
85,636231111142246827
85,636231111142416738
85,636231111142582014
85,636231111142746926
85,636231111142917017
85,636231111143082148
85,636231111143252200
85,636231111143417296
85,636231111143582401
85,636231111143752667
85,636231111143917571
85,636231111144082680
85,636231111144252856
85,636231111144418046
85,636231111144587949
85,636231111144753054
85,636231111144918129
85,636231111145088425
85,636231111145253341
85,636231111145418609
85,636231111145588687
85,636231111145753800
85,636231111145923694
85,636231111146088974
85,636231111146254062
85,636231111146424161
85,636231111146589257
85,636231111146754345
85,636231111146924431
85,636231111147089528
85,636231111147259439
85,636231111147424535
85,636231111147589636
85,636231111147759927
85,636231111147924994
85,636231111148090082
85,636231111148260005
85,636231111148425085
85,636231111148595338
85,636231111148760276
85,636231111148925552
85,636231111149095484
85,636231111149260743
85,636231111149430650
85,636231111149595742
85,636231111149761018
85,636231111149930929
85,636231111150096038
85,636231111150261109
85,636231111150431208
85,636231111150596308
85,636231111150766395
85,636231111150931675
85,636231111151096574
85,636231111151266678
85,636231111151431779
85,636231111151596866
85,636231111151766965
85,636231111151932049
85,636231111152102152
85,636231111152267411
85,636231111152432345
85,636231111152602419
85,636231111152767511
85,636231111152932616
85,636231111153102702
85,636231111153267973
85,636231111153437889
85,636231111153602981
85,636231111153768081
85,636231111153938369
85,636231111154103251
85,636231111154268369
85,636231111154438626
85,636231111154603530
85,636231111154773629
85,636231111154938905
85,636231111155103809
85,636231111155274118
85,636231111155439000
85,636231111155604093
85,636231111155774205
85,636231111155939297
85,636231111156109374
85,636231111156274672
85,636231111156439764
85,636231111156609713
85,636231111156774763
85,636231111156940017
85,636231111157109945
85,636231111157275037
85,636231111157445119
85,636231111157610391
85,636231111157775308
85,636231111157945595
85,636231111158110713
85,636231111158275766
85,636231111158445857
85,636231111158610769
85,636231111158780864
85,636231111158946144
85,636231111159111044
85,636231111159281327
85,636231111159446252
85,636231111159616330
85,636231111159781606
85,636231111159946544
85,636231111160116613
85,636231111160281889
85,636231111160447011
85,636231111160616910
85,636231111160782185
85,636231111160952075
85,636231111161117372
85,636231111161282473
85,636231111161452354
85,636231111161617630
85,636231111161782722
85,636231111161952650
85,636231111162117909
85,636231111162287816
85,636231111162452916
85,636231111162618209
85,636231111162788095
85,636231111162953187
85,636231111163118463
85,636231111163288378
85,636231111163453466
83,636231111163623565
83,636231111163788674
83,636231111163953929
83,636231111164124032
83,636231111164289120
83,636231111164454045
83,636231111164624132
83,636231111164789236
83,636231111164959306
83,636231111165124398
83,636231111165289494
83,636231111165459610
83,636231111165624869
83,636231111165789786
83,636231111165959864
83,636231111166125140
83,636231111166295093
83,636231111166460147
83,636231111166625419
83,636231111166795347
83,636231111166960610
83,636231111167125706
83,636231111167295634
83,636231111167460889
83,636231111167630800
83,636231111167795900
83,636231111167960984
83,636231111168131263
83,636231111168296171
83,636231111168461276
83,636231111168631542
83,636231111168796642
83,636231111168966540
83,636231111169131821
83,636231111169296729
83,636231111169466824
83,636231111169631916
83,636231111169797192
83,636231111169967103
83,636231111170132379
83,636231111170302290
83,636231111170467386
83,636231111170632658
83,636231111170802752
83,636231111170967874
83,636231111171137751
83,636231111171302843
83,636231111171468124
81,636231111171638030
81,636231111171803306
81,636231111171968249
81,636231111172138497
81,636231111172303598
81,636231111172468498
81,636231111172638614
81,636231111172803864
81,636231111172973831
81,636231111173139094
81,636231111173303959
81,636231111173474080
81,636231111173639151
81,636231111173809245
81,636231111173974517
81,636231111174139442
81,636231111174309580
81,636231111174474800
81,636231111174639717
81,636231111174809816
81,636231111174975079
81,636231111175145003
81,636231111175310262
81,636231111175475363
81,636231111175645458
81,636231111175810361
81,636231111175975637
81,636231111176145728
81,636231111176310649
81,636231111176480731
81,636231111176646033
81,636231111176810928
81,636231111176981019
81,636231111177146299
81,636231111177311211
81,636231111177481293
81,636231111177646402
81,636231111177816493
81,636231111177981585
81,636231111178146848
81,636231111178316772
81,636231111178482035
81,636231111178651946
81,636231111178817051
81,636231111178982314
81,636231111179152234
81,636231111179317322
81,636231111179482422
80,636231111179652701
80,636231111179817784
80,636231111179987695
80,636231111180152967
80,636231111180317880
80,636231111180487974
80,636231111180653242
80,636231111180818334
80,636231111180988437
80,636231111181153525
80,636231111181323436
80,636231111181488712
80,636231111181653813
80,636231111181823715
80,636231111181988824
80,636231111182153899
80,636231111182324178
80,636231111182489099
80,636231111182659177
80,636231111182824457
80,636231111182989553
80,636231111183159494
80,636231111183324556
80,636231111183489819
80,636231111183659919
80,636231111183825045
80,636231111183990124
80,636231111184160227
80,636231111184325298
80,636231111184495201
80,636231111184660293
80,636231111184825581
80,636231111184995488
80,636231111185160572
80,636231111185330671
80,636231111185495759
80,636231111185661052
80,636231111185830967
80,636231111185996038
80,636231111186161314
80,636231111186331421
80,636231111186496334
80,636231111186666416
80,636231111186831504
80,636231111186996784
80,636231111187166712
80,636231111187331795
80,636231111187496883
80,636231111187666995
78,636231111187832250
78,636231111188002161
78,636231111188167270
78,636231111188332341
78,636231111188502453
78,636231111188667549
78,636231111188832641
78,636231111189002898
78,636231111189167828
78,636231111189337906
78,636231111189502998
78,636231111189668094
78,636231111189838373
78,636231111190003277
78,636231111190168382
78,636231111190338464
78,636231111190503735
78,636231111190673646
78,636231111190838922
78,636231111191007093
78,636231111191173968
78,636231111191338637
78,636231111191507945
78,636231111191671959
78,636231111191840990
78,636231111192008870
78,636231111192175800
78,636231111192343351
78,636231111192510324
78,636231111192675827
78,636231111192843515
78,636231111193010680
78,636231111193179292
78,636231111193344875
78,636231111193512195
78,636231111193679395
78,636231111193843961
78,636231111194012833
78,636231111194180046
78,636231111194347050
78,636231111194510936
78,636231111194680864
78,636231111194846910
78,636231111195014101
78,636231111195181917
78,636231111195349378
78,636231111195513829
78,636231111195678963
78,636231111195849832
78,636231111196014672
78,636231111196182325
78,636231111196350864
78,636231111196515943
78,636231111196681035
78,636231111196851130
78,636231111197016231
78,636231111197181318
78,636231111197351730
78,636231111197518357
78,636231111197686087
78,636231111197851200
78,636231111198021287
78,636231111198187114
78,636231111198353605
78,636231111198522087
78,636231111198688253
78,636231111198853105
78,636231111199018185
78,636231111199188284
78,636231111199353367
78,636231111199523466
78,636231111199688580
78,636231111199853659
78,636231111200023929
78,636231111200188837
78,636231111200353925
78,636231111200524024
78,636231111200689134
78,636231111200859207
78,636231111201024487
78,636231111201189404
78,636231111201359486
78,636231111201524766
78,636231111201689670
78,636231111201859765
78,636231111202024870
78,636231111202194952
78,636231111202360138
78,636231111202525140
78,636231111202695240
77,636231111202860533
77,636231111203030414
77,636231111203195527
77,636231111203360790
77,636231111203530714
77,636231111203695789
77,636231111203861065
77,636231111204031156
77,636231111204196068
77,636231111204366163
77,636231111204531255
77,636231111204696347
77,636231111204866446
77,636231111205031718
77,636231111205196806
77,636231111205366738
77,636231111205531997
77,636231111205701908
77,636231111205867000
77,636231111206032280
77,636231111206202230
77,636231111206367471
77,636231111206532371
77,636231111206702466
77,636231111206867575
77,636231111207037657
77,636231111207202950
77,636231111207368042
77,636231111207537949
77,636231111207703028
77,636231111207868120
77,636231111208038399
77,636231111208203495
77,636231111208373398
77,636231111208538485
77,636231111208703603
77,636231111208873681
77,636231111209038769
77,636231111209203874
77,636231111209374169
77,636231111209539236
77,636231111209709143
77,636231111209874247
77,636231111210039511
77,636231111210209610
77,636231111210374693
77,636231111210539794
77,636231111210709884
77,636231111210874806
77,636231111211044888
77,636231111211210163
77,636231111211375089
77,636231111211545380
77,636231111211710451
77,636231111211875364
77,636231111212045446
77,636231111212210550
77,636231111212380632
77,636231111212545908
77,636231111212710834
77,636231111212880929
77,636231111213046196
77,636231111213211096
77,636231111213381404
77,636231111213546283
77,636231111213716377
77,636231111213881692
77,636231111214046741
77,636231111214216836
77,636231111214381761
77,636231111214546841
77,636231111214717115
77,636231111214882211
77,636231111215052139
77,636231111215217219
77,636231111215382306
77,636231111215552418
77,636231111215717677
77,636231111215882611
77,636231111216052864
77,636231111216217956
77,636231111216387880
77,636231111216552959
77,636231111216718056
77,636231111216888155
77,636231111217053422
77,636231111217223342
77,636231111217388442
77,636231111217553727
77,636231111217723638
77,636231111217888704
77,636231111218053796
77,636231111218224075
77,636231111218388983
77,636231111218559078
77,636231111218724183
77,636231111218889262
77,636231111219059361
77,636231111219224466
77,636231111219389537
77,636231111219559850
77,636231111219724955
77,636231111219894823
77,636231111220060108
77,636231111220225007
77,636231111220395299
77,636231111220560382
77,636231111220725466
77,636231111220895578
77,636231111221060486
77,636231111221230572
77,636231111221395664
77,636231111221560774
77,636231111221730843
77,636231111221895935
77,636231111222061044
77,636231111222231139
77,636231111222396218
77,636231111222566309
77,636231111222731593
77,636231111222896501
77,636231111223066784
77,636231111223231684
77,636231111223396780
77,636231111223566884
77,636231111223731967
77,636231111223902058
77,636231111224067355
77,636231111224232259
77,636231111224402337
77,636231111224567613
77,636231111224732709
77,636231111224902629
77,636231111225067888
77,636231111225237807
77,636231111225402899
77,636231111225568013
77,636231111225738086
77,636231111225903174
77,636231111226068279
77,636231111226238361
77,636231111226403637
77,636231111226573552
77,636231111226738819
77,636231111226903920
77,636231111227074015
77,636231111227238923
77,636231111227404007
77,636231111227574110
77,636231111227739219
77,636231111227909297
77,636231111228074569
77,636231111228239656
77,636231111228409576
77,636231111228574856
77,636231111228744763
77,636231111228910035
77,636231111229074938
77,636231111229245157
77,636231111229410314
77,636231111229575235
77,636231111229745500
77,636231111229910422
77,636231111230080504
77,636231111230245608
77,636231111230410893
77,636231111230580975
77,636231111230745875
77,636231111230911151
77,636231111231081066
77,636231111231246149
77,636231111231416248
77,636231111231581353
77,636231111231746454
77,636231111231916545
77,636231111232081624
77,636231111232246724
77,636231111232416802
77,636231111232581916
77,636231111232751993
77,636231111232917103
77,636231111233082195
77,636231111233252290
77,636231111233417377
77,636231111233582457
77,636231111233752569
77,636231111233917648
77,636231111234087743
77,636231111234252830
77,636231111234418128
77,636231111234588017
77,636231111234753293
77,636231111234923217
77,636231111235088292
77,636231111235253482
77,636231111235423573
77,636231111235588652
77,636231111235753928
77,636231111235923861
77,636231111236088940
77,636231111236254036
77,636231111236424118
77,636231111236589210
77,636231111236759305
77,636231111236924410
77,636231111237089665
77,636231111237259768
77,636231111237424676
77,636231111237589764
77,636231111237759859
77,636231111237924968
77,636231111238095054
77,636231111238260142
77,636231111238425444
77,636231111238595427
77,636231111238760434
77,636231111238925697
77,636231111239095788
77,636231111239260700
77,636231111239430791
77,636231111239596071
77,636231111239760975
77,636231111239931254
77,636231111240096170
77,636231111240261262
77,636231111240431537
77,636231111240596441
77,636231111240766536
77,636231111240931649
77,636231111241096720
77,636231111241267007
77,636231111241432091
77,636231111241602014
77,636231111241767098
77,636231111241932378
77,636231111242102285
77,636231111242267377
77,636231111242432482
77,636231111242612570
77,636231111242767665
77,636231111242937747
77,636231111243103023
77,636231111243267944
77,636231111243438051
77,636231111243603118
77,636231111243768227
77,636231111243938497
77,636231111244103581
77,636231111244273504
77,636231111244438592
77,636231111244603676
77,636231111244773788
77,636231111244938863
77,636231111245104139
77,636231111245274233
77,636231111245439167
77,636231111245609236
77,636231111245774521
77,636231111245939421
77,636231111246109520
77,636231111246274608
77,636231111246439725
77,636231111246609803
77,636231111246774899
77,636231111246944986
77,636231111247110257
77,636231111247275354
77,636231111247445277
77,636231111247610536
77,636231111247775466
77,636231111247945728
77,636231111248110820
77,636231111248280820
77,636231111248446002
77,636231111248611107
77,636231111248781040
77,636231111248946110
77,636231111249116197
77,636231111249281468
77,636231111249446556
77,636231111249616471
77,636231111249781568
77,636231111249946655
77,636231111250116755
77,636231111250281859
77,636231111250447118
77,636231111250617034
77,636231111250782126
77,636231111250952220
77,636231111251117381
77,636231111251282631
77,636231111251452692
77,636231111251617771
77,636231111251782867
77,636231111251952958
77,636231111252118050
77,636231111252287978
77,636231111252453237
77,636231111252618167
77,636231111252788249
77,636231111252953345
77,636231111253123431
77,636231111253288523
77,636231111253453624
77,636231111253623710
77,636231111253788991
77,636231111253954074
77,636231111254124002
77,636231111254289099
77,636231111254459172
77,636231111254624448
77,636231111254789360
77,636231111254959451
77,636231111255124539
77,636231111255289823
77,636231111255459747
77,636231111255624822
77,636231111255794921
77,636231111255960197
77,636231111256125105
77,636231111256295333
77,636231111256460284
77,636231111256625564
77,636231111256795475
77,636231111256960593
77,636231111257130662
77,636231111257295754
77,636231111257460846
77,636231111257631112
77,636231111257796213
77,636231111257961317
77,636231111258131404
77,636231111258296312
77,636231111258466424
77,636231111258631683
77,636231111258796779
77,636231111258966703
77,636231111259131791
77,636231111259297058
77,636231111259467132
77,636231111259632074
77,636231111259802156
77,636231111259967240
77,636231111260132353
77,636231111260302452
77,636231111260467544
77,636231111260632803
77,636231111260802906
77,636231111260967823
77,636231111261137901
77,636231111261303006
77,636231111261468286
77,636231111261638377
77,636231111261803289
77,636231111261973363
77,636231111262138450
77,636231111262303547
77,636231111262473642
77,636231111262638922
77,636231111262803847
77,636231111262973921
77,636231111263139021
77,636231111263309112
77,636231111263474221
77,636231111263639309
77,636231111263809387
77,636231111263974487
77,636231111264139575
77,636231111264309674
77,636231111264474753
77,636231111264644857
77,636231111264810137
77,636231111264975220
77,636231111265145217
77,636231111265310245
77,636231111265475316
77,636231111265645603
77,636231111265810507
77,636231111265980615
77,636231111266145689
77,636231111266310794
77,636231111266480881
77,636231111266646157
77,636231111266811249
77,636231111266981339
77,636231111267146252
77,636231111267316351
77,636231111267481434
77,636231111267646526
77,636231111267816801
77,636231111267981713
77,636231111268146805
77,636231111268316900
77,636231111268482001
77,636231111268652104
77,636231111268817363
77,636231111268982276
77,636231111269152567
77,636231111269317463
77,636231111269482568
77,636231111269652833
77,636231111269817754
77,636231111269987836
77,636231111270153138
77,636231111270318021
77,636231111270488304
77,636231111270653387
77,636231111270818479
77,636231111270988390
77,636231111271153495
77,636231111271323581
77,636231111271488695
77,636231111271653761
77,636231111271824044
77,636231111271989132
77,636231111272154237
77,636231111272324319
77,636231111272489415
77,636231111272659326
77,636231111272824431
77,636231111272989523
77,636231111273159793
77,636231111273324881
77,636231111273489973
77,636231111273659889
77,636231111273825156
77,636231111273995071
77,636231111274160172
77,636231111274325431
77,636231111274495406
77,636231111274660455
77,636231111274830533
77,636231111274995638
77,636231111275160901
77,636231111275330829
77,636231111275496092
77,636231111275661013
77,636231111275831095
77,636231111275996367
77,636231111276161459
77,636231111276331387
77,636231111276496466
77,636231111276666553
77,636231111276831649
77,636231111276996929
77,636231111277167028
77,636231111277332112
77,636231111277502027
77,636231111277667132
77,636231111277832224
77,636231111278002306
77,636231111278167394
77,636231111278332854
77,636231111278502786
77,636231111278667887
77,636231111278837772
77,636231111279002860
77,636231111279167952
77,636231111279338068
77,636231111279503336
77,636231111279668248
77,636231111279838330
77,636231111280003426
77,636231111280173534
77,636231111280338733
77,636231111280503876
77,636231111280673809
77,636231111280839068
77,636231111281004168
77,636231111281174075
77,636231111281339355
77,636231111281509262
77,636231111281674367
77,636231111281839446
77,636231111282009567
77,636231111282174633
77,636231111282339909
77,636231111282510017
77,636231111282675130
77,636231111282845003
77,636231111283010090
77,636231111283175191
77,636231111283345316
77,636231111283510374
77,636231111283675650
77,636231111283845749
77,636231111284010661
77,636231111284180747
77,636231111284346066
77,636231111284511103
77,636231111284681031
77,636231111284846136
77,636231111285011223
77,636231111285181498
77,636231111285346415
77,636231111285516497
77,636231111285681584
77,636231111285846677
77,636231111286016784
77,636231111286181876
77,636231111286346960
77,636231111286517268
77,636231111286682352
77,636231111286852237
77,636231111287017513
77,636231111287182421
77,636231111287352542
77,636231111287517621
77,636231111287687703
77,636231111287852800
77,636231111288018097
77,636231111288187987
77,636231111288353079
77,636231111288518171
77,636231111288688471
77,636231111288853366
77,636231111289023453
77,636231111289188557
77,636231111289353649
77,636231111289523732
77,636231111289688819
77,636231111289854100
77,636231111290024006
77,636231111290189282
77,636231111290359197
77,636231111290524285
77,636231111290689394
77,636231111290859545
77,636231111291024757
77,636231111291189673
77,636231111291359764
77,636231111291525027
77,636231111291694942
77,636231111291860218
77,636231111292025131
77,636231111292195221
77,636231111292360309
77,636231111292530404
77,636231111292695517
77,636231111292860802
77,636231111293030687
77,636231111293195959
77,636231111293361081
77,636231111293530966
77,636231111293696054
77,636231111293861334
77,636231111294031245
77,636231111294196526
77,636231111294366432
77,636231111294531537
77,636231111294696633
77,636231111294866929
77,636231111295031812
77,636231111295196900
77,636231111295366982
77,636231111295532078
78,636231111295702177
78,636231111295867449
78,636231111296032361
78,636231111296202657
78,636231111296367548
78,636231111296532640
78,636231111296702752
78,636231111296867840
78,636231111297037922
78,636231111297203014
78,636231111297368294
78,636231111297538197
78,636231111297703477
78,636231111297873388
78,636231111298038476
78,636231111298203756
78,636231111298373667
78,636231111298538939
78,636231111298703847
78,636231111298874147
78,636231111299039051
78,636231111299209146
78,636231111299374246
78,636231111299539326
78,636231111299709412
78,636231111299874688
78,636231111300039776
78,636231111300209871
78,636231111300374796
78,636231111300544878
78,636231111300709974
78,636231111300875058
78,636231111301045153
78,636231111301210450
78,636231111301375563
78,636231111301545449
78,636231111301710708
78,636231111301880619
78,636231111302045728
78,636231111302210807
78,636231111302380898
78,636231111302546178
78,636231111302711099
78,636231111302881202
78,636231111303046264
78,636231111303216364
78,636231111303381468
78,636231111303546740
78,636231111303716647
78,636231111303881923
78,636231111304047019
78,636231111304217101
78,636231111304382206
78,636231111304552108
78,636231111304717380
78,636231111304882310
78,636231111305052392
78,636231111305217480
78,636231111305382593
78,636231111305552679
78,636231111305717947
78,636231111305887853
78,636231111306052941
78,636231111306218234
78,636231111306388325
78,636231111306553413
78,636231111306718505
78,636231111306888433
78,636231111307053521
78,636231111307223615
78,636231111307388874
78,636231111307554009
78,636231111307723894
78,636231111307889153
78,636231111308059069
78,636231111308224173
78,636231111308389270
78,636231111308559373
78,636231111308724619
78,636231111308889544
78,636231111309059644
78,636231111309224731
78,636231111309394809
78,636231111309560085
78,636231111309725010
78,636231111309895088
78,636231111310060197
78,636231111310225456
78,636231111310395551
78,636231111310560656
78,636231111310730558
78,636231111310895830
78,636231111311060811
78,636231111311231026
78,636231111311395934
78,636231111311561205
78,636231111311731317
78,636231111311896217
78,636231111312066299
78,636231111312231575
78,636231111312396676
78,636231111312566578
78,636231111312731867
78,636231111312896762
78,636231111313067041
78,636231111313232133
78,636231111313402053
78,636231111313567136
78,636231111313732250
78,636231111313902541
78,636231111314067419
78,636231111314232695
78,636231111314402786
78,636231111314567912
78,636231111314737806
78,636231111314902885
78,636231111315067982
78,636231111315238265
78,636231111315403164
78,636231111315568273
78,636231111315738355
78,636231111315903623
78,636231111316073534
78,636231111316238622
78,636231111316403718
78,636231111316573830
78,636231111316738909
78,636231111316904181
78,636231111317074096
78,636231111317239184
78,636231111317409283
78,636231111317574375
78,636231111317739647
78,636231111317909746
78,636231111318074676
78,636231111318239934
78,636231111318410025
78,636231111318574933
78,636231111318745028
78,636231111318910116
78,636231111319075225
78,636231111319245491
78,636231111319410412
78,636231111319580490
78,636231111319745582
78,636231111319910682
78,636231111320080786
78,636231111320245878
78,636231111320411132
78,636231111320581108
78,636231111320746328
78,636231111320911240
78,636231111321081511
78,636231111321246603
78,636231111321416514
78,636231111321581610
78,636231111321746715
78,636231111321916989
78,636231111322081902
78,636231111322247156
78,636231111322417080
78,636231111322582194
78,636231111322752259
78,636231111322917368
78,636231111323082631
78,636231111323252721
78,636231111323417630
78,636231111323587724
78,636231111323752817
78,636231111323917913
78,636231111324088196
78,636231111324253113
78,636231111324418205
78,636231111324588300
78,636231111324753387
78,636231111324923474
78,636231111325088754
78,636231111325253876
78,636231111325423937
78,636231111325589024
78,636231111325753950
78,636231111325924211
78,636231111326089303
78,636231111326259231
78,636231111326424324
78,636231111326589403
78,636231111326759724
78,636231111326924799
78,636231111327089677
78,636231111327259768
78,636231111327425048
78,636231111327594976
78,636231111327760252
78,636231111327925336
78,636231111328095255
78,636231111328260352
78,636231111328425422
78,636231111328595522
78,636231111328760819
78,636231111328930708
78,636231111329095993
78,636231111329261085
78,636231111329430992
78,636231111329596259
78,636231111329761360
78,636231111329931450
78,636231111330096371
78,636231111330266453
78,636231111330431541
78,636231111330596817
78,636231111330766805
78,636231111330931824
78,636231111331097100
78,636231111331267011
78,636231111331432279
78,636231111331602198
78,636231111331767299
78,636231111331932566
78,636231111332102473
78,636231111332267569
78,636231111332432670
78,636231111332602756
78,636231111332767844
78,636231111332937943
78,636231111333103035
79,636231111333268127
79,636231111333438440
79,636231111333603310
79,636231111333768402
79,636231111333938685
79,636231111334103773
79,636231111334273688
79,636231111334438793
79,636231111334604052
79,636231111334773980
79,636231111334939243
79,636231111335109154
79,636231111335274246
79,636231111335439330
79,636231111335609433
79,636231111335774525
79,636231111335939630
79,636231111336109721
79,636231111336274800
79,636231111336444899
79,636231111336610000
79,636231111336775096
79,636231111336945191
79,636231111337110266
79,636231111337275375
79,636231111337445470
79,636231111337610562
79,636231111337780657
79,636231111337945916
79,636231111338110841
79,636231111338281107
79,636231111338446195
79,636231111338611287
79,636231111338781382
79,636231111338946311
79,636231111339116389
79,636231111339281477
79,636231111339446753
79,636231111339616856
79,636231111339781773
79,636231111339946861
79,636231111340116964
79,636231111340282039
79,636231111340452130
79,636231111340617222
79,636231111340782314
79,636231111340952426
79,636231111341117518
79,636231111341282610
79,636231111341452893
79,636231111341617775
79,636231111341787875
79,636231111341953150
79,636231111342118084
79,636231111342288346
79,636231111342453429
79,636231111342618526
79,636231111342788625
79,636231111342953525
79,636231111343123624
79,636231111343288900
79,636231111343454009
79,636231111343623898
79,636231111343788986
79,636231111343954271
79,636231111344124190
79,636231111344289453
79,636231111344459364
79,636231111344624645
79,636231111344789549
79,636231111344959648
79,636231111345124744
79,636231111345289845
79,636231111345459927
79,636231111345625203
79,636231111345795109
79,636231111345960385
79,636231111346125486
79,636231111346295405
79,636231111346460664
79,636231111346630580
79,636231111346795684
79,636231111346960952
79,636231111347130859
80,636231111347295959
80,636231111347461227
80,636231111347631133
80,636231111347796409
80,636231111347961317
80,636231111348131429
80,636231111348296714
80,636231111348466599
80,636231111348631845
80,636231111348796967
80,636231111348966882
80,636231111349132158
80,636231111349302065
80,636231111349467170
80,636231111349632266
80,636231111349802348
80,636231111349967440
80,636231111350132528
80,636231111350302811
80,636231111350467741
80,636231111350637849
80,636231111350803129
80,636231111350968225
80,636231111351138123
80,636231111351303215
80,636231111351468312
80,636231111351638419
80,636231111351803503
80,636231111351973593
80,636231111352138869
80,636231111352303987
80,636231111352474056
80,636231111352639148
80,636231111352804236
80,636231111352974152
80,636231111353139248
80,636231111353309338
80,636231111353474431
80,636231111353639634
80,636231111353809630
80,636231111353974727
80,636231111354139814
80,636231111354309909
80,636231111354474989
80,636231111354645088
80,636231111354810355
80,636231111354975451
80,636231111355145362
80,636231111355310454
80,636231111355475559
80,636231111355645658
80,636231111355810917
80,636231111355980828
80,636231111356145942
80,636231111356311008
80,636231111356481124
80,636231111356646212
80,636231111356816299
80,636231111356981386
80,636231111357146662
80,636231111357316637
80,636231111357481670
80,636231111357646783
80,636231111357817045
80,636231111357982128
80,636231111358152039
80,636231111358317136
80,636231111358482407
80,636231111358652421
80,636231111358817406
80,636231111358982686
80,636231111359152610
80,636231111359317694
80,636231111359487784
80,636231111359652898
80,636231111359817985
80,636231111359988076
80,636231111360153159
80,636231111360318247
80,636231111360488530
80,636231111360653614
80,636231111360823568
80,636231111360988638
80,636231111361153897
80,636231111361323992
80,636231111361489084
80,636231111361654009
80,636231111361824091
80,636231111361989183
80,636231111362159278
80,636231111362324366
80,636231111362489651
80,636231111362659745
80,636231111362824658
80,636231111362989921
80,636231111363160016
80,636231111363325112
80,636231111363495019
80,636231111363660299
80,636231111363825203
80,636231111363995298
80,636231111364160394
80,636231111364325486
80,636231111364495581
80,636231111364660669
80,636231111364830764
80,636231111364996044
80,636231111365160961
80,636231111365331047
80,636231111365496135
80,636231111365661231
80,636231111365831472
80,636231111365996440
80,636231111366166509
80,636231111366331815
80,636231111366496898
80,636231111366666792
80,636231111366831880
80,636231111366996985
80,636231111367167071
80,636231111367332172
80,636231111367502446
80,636231111367667346
80,636231111367832652
80,636231111368002537
80,636231111368167633
80,636231111368332901
80,636231111368502833
80,636231111368667908
80,636231111368838003
80,636231111369003275
80,636231111369168191
80,636231111369338474
80,636231111369503383
80,636231111369668466
80,636231111369838741
80,636231111370003653
80,636231111370173744
80,636231111370339032
80,636231111370503936
80,636231111370674027
80,636231111370839299
80,636231111371004399
80,636231111371174323
80,636231111371339411
80,636231111371509493
80,636231111371674602
80,636231111371839861
80,636231111372009956
80,636231111372174860
80,636231111372344959
80,636231111372510047
80,636231111372675348
80,636231111372845251
80,636231111373010531
80,636231111373175619
80,636231111373345530
80,636231111373510609
80,636231111373680699
80,636231111373845791
80,636231111374010892
80,636231111374180987
80,636231111374346259
80,636231111374511351
80,636231111374681274
80,636231111374846367
80,636231111375016444
80,636231111375181725
80,636231111375346628
80,636231111375516745
80,636231111375681815
80,636231111375851910
80,636231111376017190
80,636231111376182107
80,636231111376352194
80,636231111376517286
80,636231111376682373
80,636231111376852498
80,636231111377017744
80,636231111377182652
80,636231111377352764
80,636231111377517861
80,636231111377687938
80,636231111377853210
80,636231111378018311
80,636231111378188294
80,636231111378353322
80,636231111378523404
80,636231111378688710
80,636231111378853794
80,636231111379023722
80,636231111379188810
80,636231111379353906
80,636231111379524082
80,636231111379689089
80,636231111379854181
80,636231111380024293
80,636231111380189552
80,636231111380359467
80,636231111380524559
80,636231111380689660
80,636231111380859746
80,636231111381025039
80,636231111381189930
80,636231111381360042
80,636231111381525301
80,636231111381695207
80,636231111381860304
80,636231111382025396
80,636231111382195675
80,636231111382360600
80,636231111382530691
80,636231111382695761
80,636231111382861046
80,636231111383030952
80,636231111383196224
80,636231111383361141
80,636231111383531236
80,636231111383696537
80,636231111383861599
80,636231111384031699
80,636231111384196602
80,636231111384366714
80,636231111384531986
80,636231111384696881
80,636231111384866985
80,636231111385032086
80,636231111385202168
80,636231111385367469
80,636231111385532352
80,636231111385702545
80,636231111385867539
80,636231111386032622
80,636231111386202726
80,636231111386367813
80,636231111386537908
80,636231111386703005
80,636231111386868097
80,636231111387043190
80,636231111387203279
80,636231111387368388
80,636231111387538488
80,636231111387703571
80,636231111387873653
80,636231111388038762
80,636231111388203837
80,636231111388374120
80,636231111388539046
80,636231111388704125
80,636231111388874211
80,636231111389039303
80,636231111389209402
80,636231111389374695
80,636231111389539792
80,636231111389709780
80,636231111389874782
80,636231111390040054
80,636231111390210149
80,636231111390375228
80,636231111390545143
80,636231111390710231
80,636231111390875340
80,636231111391045422
80,636231111391210527
80,636231111391375606
80,636231111391545906
80,636231111391710998
80,636231111391880888
80,636231111392046172
80,636231111392211256
80,636231111392381163
80,636231111392546443
80,636231111392921477
80,636231111392931491
80,636231111393046726
80,636231111393216637
80,636231111393381734
80,636231111393546826
80,636231111393717104
80,636231111393882218
80,636231111394052103
80,636231111394217379
80,636231111394382492
80,636231111394552463
80,636231111394717491
80,636231111394882562
80,636231111395052845
80,636231111395217933
80,636231111395387848
80,636231111395552936
80,636231111395718045
80,636231111395888123
80,636231111396053236
80,636231111396218311
80,636231111396388397
80,636231111396553490
80,636231111396723589
80,636231111396888860
80,636231111397053794
80,636231111397224022
80,636231111397388960
80,636231111397554056
80,636231111397724339
80,636231111397889448
80,636231111398059334
80,636231111398224443
80,636231111398389539
80,636231111398559613
80,636231111398724889
80,636231111398889814
80,636231111399060080
80,636231111399225001
80,636231111399395091
80,636231111399560175
80,636231111399725284
80,636231111399895379
80,636231111400060471
80,636231111400225726
80,636231111400395820
80,636231111400560729
80,636231111400730836
80,636231111400896095
80,636231111401061020
80,636231111401231102
80,636231111401396383
80,636231111401561304
80,636231111401731399
80,636231111401896491
80,636231111402066568
80,636231111402231883
80,636231111402396753
80,636231111402566865
80,636231111402732132
80,636231111402902034
80,636231111403067144
80,636231111403232231
80,636231111403402313
80,636231111403567405
80,636231111403732686
80,636231111403902605
80,636231111404067702
80,636231111404237779
80,636231111404402888
80,636231111404568152
80,636231111404738075
80,636231111404903339
80,636231111405068431
80,636231111405238525
80,636231111405403429
80,636231111405573524
80,636231111405738796
80,636231111405903717
80,636231111406073808
80,636231111406239101
80,636231111406404009
80,636231111406574275
80,636231111406739354
80,636231111406909269
80,636231111407074366
80,636231111407239641
80,636231111407409552
80,636231111407574645
80,636231111407739920
80,636231111407909831
80,636231111408074928
80,636231111408245018
80,636231111408410324
80,636231111408575412
80,636231111408745293
80,636231111408910569
80,636231111409075665
80,636231111409245760
80,636231111409410681
80,636231111409580759
80,636231111409746035
80,636231111409910969
80,636231111410081064
80,636231111410246318
80,636231111410411244
80,636231111410581505
80,636231111410746593
80,636231111410916504
80,636231111411081596
80,636231111411246889
80,636231111411416800
80,636231111411581871
80,636231111411747155
80,636231111411917250
80,636231111412082175
80,636231111412252253
80,636231111412417354
80,636231111412582429
80,636231111412752528
80,636231111412917808
80,636231111413082721
80,636231111413252991
80,636231111413417899
80,636231111413587998
80,636231111413753112
80,636231111413918182
80,636231111414088298
80,636231111414253549
80,636231111414418461
80,636231111414588569
80,636231111414753849
80,636231111414923743
80,636231111415088848
80,636231111415253923
80,636231111415424214
80,636231111415589131
80,636231111415759205
80,636231111415924293
80,636231111416089568
80,636231111416259484
80,636231111416424760
80,636231111416589685
80,636231111416759767
80,636231111416924872
80,636231111417094950
80,636231111417260046
80,636231111417425151
80,636231111417595229
80,636231111417760334
80,636231111417925592
80,636231111418095512
80,636231111418260604
80,636231111418425696
79,636231111418595787
79,636231111418760896
79,636231111418930991
79,636231111419096070
79,636231111419261179
79,636231111419431265
79,636231111419596353
79,636231111419766444
79,636231111419931544
79,636231111420096820
79,636231111420266719
79,636231111420431994
79,636231111420596937
79,636231111420767002
79,636231111420932273
79,636231111421102184
79,636231111421267465
79,636231111421432386
79,636231111421602463
79,636231111421767744
79,636231111421932831
79,636231111422102922
79,636231111422267852
79,636231111422437929
79,636231111422603201
79,636231111422768148
79,636231111422938397
79,636231111423103480
79,636231111423268572
79,636231111423438676
79,636231111423603575
79,636231111423773691
79,636231111423938950
79,636231111424103871
79,636231111424274137
79,636231111424439041
79,636231111424604321
79,636231111424774245
79,636231111424939337
79,636231111425109424
79,636231111425274717
79,636231111425439603
79,636231111425609784
79,636231111425774974
79,636231111425940062
79,636231111426110165
79,636231111426275086
79,636231111426445164
79,636231111426610461
79,636231111426775532
79,636231111426945640
79,636231111427110723
79,636231111427275811
79,636231111427445739
79,636231111427610810
79,636231111427780909
79,636231111427946181
79,636231111428111098
79,636231111428281376
79,636231111428446464
79,636231111428616375
79,636231111428781651
79,636231111428946559
79,636231111429116650
79,636231111429281759
79,636231111429446842
79,636231111429617130
79,636231111429782042
79,636231111429947117
79,636231111430117396
79,636231111430282317
79,636231111430452587
79,636231111430617675
79,636231111430782763
79,636231111430952866
79,636231111431117783
79,636231111431287865
79,636231111431452961
79,636231111431618254
79,636231111431788208
79,636231111431953253
79,636231111432118516
79,636231111432288611
79,636231111432453524
79,636231111432623610
79,636231111432788882
79,636231111432953982
79,636231111433124073
79,636231111433288994
79,636231111433454073
79,636231111433624347
79,636231111433789444
79,636231111433959351
79,636231111434124631
79,636231111434289556
79,636231111434459698
79,636231111434624730
79,636231111434790006
79,636231111434959930
79,636231111435125005
79,636231111435295100
79,636231111435460205
79,636231111435625468
79,636231111435795494
79,636231111435960659
79,636231111436125584
79,636231111436295842
79,636231111436460942
79,636231111436630845
79,636231111436796121
79,636231111436961208
79,636231111437131312
79,636231111437296229
79,636231111437461321
79,636231111437631428
79,636231111437796679
79,636231111437966590
79,636231111438131878
79,636231111438296774
79,636231111438466886
79,636231111438632140
79,636231111438802060
79,636231111438967340
79,636231111439132252
79,636231111439302369
79,636231111439467435
79,636231111439632519
79,636231111439802639
79,636231111439967706
79,636231111440132982
79,636231111440302897
79,636231111440468168
79,636231111440638084
79,636231111440803189
79,636231111440968447
79,636231111441138542
79,636231111441303455
79,636231111441473550
79,636231111441638834
79,636231111441803734
79,636231111441973833
79,636231111442138921
79,636231111442304192
79,636231111442474292
79,636231111442639217
79,636231111442809290
79,636231111442974571
79,636231111443139658
79,636231111443309569
79,636231111443474845
79,636231111443639771
79,636231111443809853
79,636231111443974940
79,636231111444145035
79,636231111444310345
79,636231111444475219
79,636231111444645460
79,636231111444810423
79,636231111444975682
79,636231111445145773
79,636231111445310690
79,636231111445480784
79,636231111445646060
79,636231111445810973
79,636231111445981072
79,636231111446146173
79,636231111446311256
79,636231111446481334
79,636231111446646435
79,636231111446816525
79,636231111446981613
79,636231111447146897
79,636231111447316988
79,636231111447481913
79,636231111447647253
79,636231111447817083
79,636231111447982363
79,636231111448152283
79,636231111448317559
79,636231111448482467
79,636231111448652545
79,636231111448817658
79,636231111448982755
79,636231111449153012
79,636231111449318104
79,636231111449488019
79,636231111449653107
79,636231111449818387
79,636231111449988307
79,636231111450153399
79,636231111450318474
79,636231111450488586
79,636231111450653665
79,636231111450823764
79,636231111450990451
79,636231111451154025
79,636231111451323919
79,636231111451491350
79,636231111451658401
79,636231111451825609
79,636231111451992425
79,636231111452156448
79,636231111452324062
79,636231111452493144
79,636231111452660164
79,636231111452827095
79,636231111452994069
79,636231111453161688
79,636231111453328088
79,636231111453491145
79,636231111453662446
79,636231111453829586
79,636231111453995422
79,636231111454163546
79,636231111454329664
79,636231111454497488
79,636231111454662217
79,636231111454830849
79,636231111454998413
79,636231111455164796
79,636231111455331778
79,636231111455499329
79,636231111455666444
79,636231111455831360
79,636231111455999672
79,636231111456165213
79,636231111456334183
79,636231111456500618
79,636231111456667510
79,636231111456835125
79,636231111457001526
79,636231111457169560
79,636231111457335485
79,636231111457503032
79,636231111457670001
79,636231111457837197
79,636231111458003418
79,636231111458171708
79,636231111458334671
79,636231111458504779
79,636231111458671265
79,636231111458837909
79,636231111459005147
79,636231111459172779
79,636231111459337542
79,636231111459506718
79,636231111459671566
79,636231111459840669
79,636231111460006171
79,636231111460174458
79,636231111460341029
79,636231111460506049
79,636231111460675536
79,636231111460843544
79,636231111461009487
79,636231111461176469
79,636231111461342926
79,636231111461510416
79,636231111461677390
79,636231111461840853
79,636231111462010760
79,636231111462177780
79,636231111462344629
79,636231111462512300
79,636231111462676999
79,636231111462844511
79,636231111463013212
79,636231111463179287
79,636231111463346299
79,636231111463511404
79,636231111463681486
79,636231111463846591
79,636231111464011854
79,636231111464182111
79,636231111464347191
79,636231111464512296
79,636231111464682399
79,636231111464847470
79,636231111465012558
79,636231111465182674
79,636231111465347753
78,636231111465517839
78,636231111465682957
78,636231111465848023
78,636231111466018140
78,636231111466183407
78,636231111466348307
78,636231111466518402
78,636231111466683494
78,636231111466853597
78,636231111467018864
78,636231111467183773
78,636231111467353885
78,636231111467518985
78,636231111467684073
78,636231111467854147
78,636231111468019239
78,636231111468189333
78,636231111468354455
78,636231111468519518
78,636231111468689634
78,636231111468854717
78,636231111469024804
78,636231111469189909
78,636231111469354979
78,636231111469525087
78,636231111469690170
78,636231111469855271
78,636231111470025366
78,636231111470190449
78,636231111470360540
78,636231111470525636
78,636231111470690737
78,636231111470860845
78,636231111471025915
78,636231111471191007
78,636231111471361102
78,636231111471526203
78,636231111471696294
78,636231111471861390
78,636231111472026473
78,636231111472196581
78,636231111472361660
78,636231111472526757
78,636231111472696847
78,636231111472862123
78,636231111473032034
78,636231111473197139
78,636231111473362235
78,636231111473532343
78,636231111473697401
78,636231111473862493
78,636231111474032772
77,636231111474197697
77,636231111474367792
77,636231111474533051
77,636231111474697963
77,636231111474868242
77,636231111475033330
77,636231111475198242
77,636231111475368517
77,636231111475533463
77,636231111475703520
77,636231111475868817
77,636231111476033931
77,636231111476203987
77,636231111476369079
77,636231111476534167
77,636231111476704082
77,636231111476869311
77,636231111477039265
77,636231111477204357
77,636231111477369637
77,636231111477539599
77,636231111477704640
77,636231111477869745
77,636231111478039844
77,636231111478205103
77,636231111478375014
77,636231111478540110
77,636231111478705211
77,636231111478875383
77,636231111479040565
77,636231111479205665
77,636231111479375777
77,636231111479540848
77,636231111479710759
77,636231111479875860
77,636231111480040939
77,636231111480211235
77,636231111480376126
77,636231111480546221
77,636231111480711313
77,636231111480876593
77,636231111481046521
77,636231111481211592
77,636231111481376868
77,636231111481546783
77,636231111481711892
77,636231111481881965
77,636231111482047066
77,636231111482212167
77,636231111482382262
77,636231111482547375
77,636231111482712617
77,636231111482882720
77,636231111483047624
77,636231111483217710
77,636231111483382995
77,636231111483548091
77,636231111483718011
77,636231111483883099
77,636231111484048191
77,636231111484218478
77,636231111484383549
77,636231111484553455
77,636231111484718753
77,636231111484883669
77,636231111485053739
77,636231111485218831
77,636231111485383923
77,636231111485554018
77,636231111485719110
77,636231111485889209
77,636231111486054297
77,636231111486219590
77,636231111486389513
77,636231111486554588
77,636231111486724666
77,636231111486889780
77,636231111487054863
77,636231111487224945
77,636231111487390046
77,636231111487555322
77,636231111487725293
77,636231111487890316
77,636231111488055413
77,636231111488225687
77,636231111488390612
77,636231111488560699
77,636231111488725970
77,636231111488890879
77,636231111489060986
77,636231111489226087
77,636231111489391337
77,636231111489561265
77,636231111489726340
77,636231111489896439
77,636231111490061531
77,636231111490226624
77,636231111490396740
77,636231111490561828
77,636231111490726915
77,636231111490897010
77,636231111491062089
77,636231111491232180
77,636231111491397276
77,636231111491562377
77,636231111491732468
77,636231111491897555
77,636231111492067650
77,636231111492232759
77,636231111492397834
77,636231111492567925
77,636231111492733026
77,636231111492898113
77,636231111493068213
77,636231111493233296
77,636231111493403395
77,636231111493568483
77,636231111493733579
77,636231111493903670
77,636231111494068762
77,636231111494233854
77,636231111494403949
77,636231111494569045
77,636231111494734142
77,636231111494904232
77,636231111495069324
77,636231111495239415
77,636231111495404515
77,636231111495569599
77,636231111495739694
77,636231111495904794
77,636231111496074885
77,636231111496239977
77,636231111496405069
77,636231111496575160
77,636231111496740256
77,636231111496905352
77,636231111497075447
77,636231111497240539
77,636231111497410630
77,636231111497575726
77,636231111497740827
77,636231111497910909
77,636231111498076022
77,636231111498241277
77,636231111498411184
77,636231111498576276
77,636231111498746375
77,636231111498911651
77,636231111499076769
77,636231111499246671
77,636231111499411750
77,636231111499576838
77,636231111499746933
77,636231111499912034
77,636231111500082120
77,636231111500247208
77,636231111500412330
77,636231111500582412
77,636231111500747487
77,636231111500912596
77,636231111501082674
77,636231111501247804
77,636231111501417865
77,636231111501582953
77,636231111501748062
77,636231111501918165
77,636231111502083232
77,636231111502248345
77,636231111502418427
77,636231111502583523
77,636231111502753610
77,636231111502918706
77,636231111503083807
77,636231111503253893
77,636231111503418981
77,636231111503584069
77,636231111503754163
77,636231111503919264
77,636231111504089350
77,636231111504254447
77,636231111504419740
77,636231111504589638
77,636231111504754734
77,636231111504924816
77,636231111505089908
77,636231111505255009
77,636231111505425095
77,636231111505590204
77,636231111505755279
77,636231111505925387
77,636231111506090471
77,636231111506260561
77,636231111506425841
77,636231111506590771
77,636231111506760866
77,636231111506925949
77,636231111507091037
77,636231111507261124
77,636231111507426216
77,636231111507596310
77,636231111507761415
77,636231111507926499
77,636231111508096598
77,636231111508261694
77,636231111508426791
77,636231111508596868
77,636231111508761961
77,636231111508932051
77,636231111509097143
77,636231111509262240
77,636231111509432339
77,636231111509597426
77,636231111509762519
77,636231111509932613
77,636231111510097701
77,636231111510267800
77,636231111510432897
77,636231111510597989
77,636231111510768238
77,636231111510933330
77,636231111511098430
77,636231111511268512
77,636231111511433621
77,636231111511603703
77,636231111511768804
77,636231111511933892
77,636231111512104171
77,636231111512269070
77,636231111512434162
77,636231111512604445
77,636231111512769537
77,636231111512939448
77,636231111513104553
77,636231111513269825
77,636231111513439732
77,636231111513605008
77,636231111513769907
77,636231111513940190
77,636231111514105282
77,636231111514275198
77,636231111514440281
77,636231111514605570
77,636231111514775665
77,636231111514940744
77,636231111515110659
77,636231111515275756
77,636231111515440843
77,636231111515610938
77,636231111515776030
77,636231111515941131
77,636231111516111213
77,636231111516276309
77,636231111516441397
77,636231111516611505
77,636231111516776601
77,636231111516946683
77,636231111517111780
77,636231111517276880
77,636231111517447146
77,636231111517612238
77,636231111517777151
77,636231111517947241
77,636231111518112333
77,636231111518282424
77,636231111518447516
77,636231111518612800
77,636231111518782703
77,636231111518947799
77,636231111519117894
77,636231111519282982
77,636231111519448082
77,636231111519618276
77,636231111519783278
77,636231111519948379
77,636231111520118452
77,636231111520283724
77,636231111520453639
77,636231111520618744
77,636231111520783840
77,636231111520954038
77,636231111521119014
77,636231111521284307
77,636231111521454201
77,636231111521619285
77,636231111521789384
77,636231111521954497
77,636231111522119568
77,636231111522289843
77,636231111522454939
77,636231111522620031
77,636231111522790130
77,636231111522955218
77,636231111523125125
77,636231111523290221
77,636231111523455326
77,636231111523625429
77,636231111523790517
77,636231111523955626
77,636231111524125871
77,636231111524290792
77,636231111524460874
77,636231111524625966
77,636231111524791259
77,636231111524961341
77,636231111525126245
77,636231111525291337
77,636231111525461440
77,636231111525626520
77,636231111525796619
77,636231111525961916
77,636231111526126820
77,636231111526296893
77,636231111526462174
77,636231111526627082
77,636231111526797177
77,636231111526962273
77,636231111527132364
77,636231111527297460
77,636231111527462727
77,636231111527632839
77,636231111527797743
77,636231111527963032
77,636231111528132926
77,636231111528298018
77,636231111528468104
77,636231111528633402
77,636231111528798485
77,636231111528968576
77,636231111529133480
77,636231111529298576
77,636231111529468667
77,636231111529633776
77,636231111529803858
77,636231111529969159
77,636231111530134055
77,636231111530304342
77,636231111530469250
77,636231111530639315
77,636231111530804407
77,636231111530969687
77,636231111531139598
77,636231111531304686
77,636231111531469791
77,636231111531639890
77,636231111531804974
77,636231111531975069
77,636231111532140186
77,636231111532305249
77,636231111532475339
77,636231111532640448
77,636231111532805523
77,636231111532975627
77,636231111533140710
77,636231111533310822
77,636231111533475897
77,636231111533641015
77,636231111533811088
77,636231111533976185
77,636231111534141272
77,636231111534311367
77,636231111534476459
77,636231111534646554
77,636231111534811830
77,636231111534976918
77,636231111535147026
77,636231111535312113
77,636231111535477030
77,636231111535647125
77,636231111535812204
77,636231111535982303
77,636231111536147400
77,636231111536312693
77,636231111536482578
77,636231111536647683
77,636231111536812762
77,636231111536983041
77,636231111537147962
77,636231111537318044
77,636231111537483149
77,636231111537648434
77,636231111537818387
77,636231111537983599
77,636231111538148704
77,636231111538318602
77,636231111538483908
77,636231111538653789
77,636231111538819069
77,636231111538983973
77,636231111539154175
77,636231111539319340
77,636231111539484269
77,636231111539654343
77,636231111539819456
77,636231111539989534
77,636231111540154639
77,636231111540319714
77,636231111540489813
77,636231111540654905
77,636231111540819993
77,636231111540990109
77,636231111541155372
77,636231111541325279
77,636231111541490555
77,636231111541655643
77,636231111541825554
77,636231111541990834
77,636231111542160745
77,636231111542326021
77,636231111542491117
77,636231111542661024
77,636231111542826321
77,636231111542991413
77,636231111543161316
77,636231111543326579
77,636231111543491487
77,636231111543661766
77,636231111543826858
77,636231111543996786
77,636231111544161882
77,636231111544326966
77,636231111544497044
77,636231111544662140
77,636231111544832239
77,636231111544997340
77,636231111545162432
77,636231111545332509
77,636231111545497619
77,636231111545662694
77,636231111545832788
77,636231111545997893
77,636231111546162985
77,636231111546333072
77,636231111546498172
77,636231111546668284
77,636231111546833359
77,636231111546998451
77,636231111547168538
77,636231111547333630
77,636231111547503720
77,636231111547668817
77,636231111547833913
77,636231111548004008
77,636231111548169096
77,636231111548334188
77,636231111548504278
77,636231111548669375
77,636231111548839470
77,636231111549004574
77,636231111549169675
77,636231111549339749
77,636231111549504849
77,636231111549674931
77,636231111549840036
77,636231111550005124
77,636231111550175214
77,636231111550340328
77,636231111550505578
77,636231111550675677
77,636231111550840590
77,636231111551005686
77,636231111551175785
77,636231111551340860
77,636231111551510964
77,636231111551676051
77,636231111551841323
77,636231111552011431
77,636231111552176514
77,636231111552346425
77,636231111552511530
77,636231111552676789
77,636231111552846709
77,636231111553011831
77,636231111553176897
77,636231111553347000
77,636231111553512084
77,636231111553677351
77,636231111553847262
77,636231111554012564
77,636231111554182471
77,636231111554347537
77,636231111554512826
77,636231111554682728
77,636231111554847816
77,636231111555017915
77,636231111555183020
77,636231111555348309
77,636231111555518203
77,636231111555683286
77,636231111555848588
77,636231111556018473
77,636231111556183582
77,636231111556353660
77,636231111556518765
77,636231111556684037
77,636231111556853952
77,636231111557019031
77,636231111557184119
77,636231111557354231
77,636231111557519498
77,636231111557689405
77,636231111557854514
77,636231111558019589
77,636231111558189680
77,636231111558354776
77,636231111558520048
77,636231111558689980
77,636231111558855243
77,636231111559025150
77,636231111559190289
77,636231111559355343
77,636231111559525617
77,636231111559690525
77,636231111559855827
77,636231111560025708
77,636231111560190984
77,636231111560360895
77,636231111560525996
77,636231111560691263
77,636231111560861174
77,636231111561026450
77,636231111561191358
77,636231111561361466
77,636231111561526541
77,636231111561696640
77,636231111561861749
77,636231111562026820
77,636231111562196915
77,636231111562362020
77,636231111562527103
77,636231111562697219
77,636231111562862290
77,636231111563032573
77,636231111563197656
77,636231111563362569
77,636231111563532664
77,636231111563697756
77,636231111563867851
77,636231111564032943
77,636231111564198240
77,636231111564368147
77,636231111564533247
77,636231111564698515
77,636231111564868593
77,636231111565033689
77,636231111565198777
77,636231111565368872
77,636231111565533780
77,636231111565703875
77,636231111565869155
77,636231111566034067
77,636231111566204149
77,636231111566369434
77,636231111566534342
77,636231111566704428
77,636231111566869717
77,636231111567039786
77,636231111567204712
77,636231111567369983
77,636231111567539894
77,636231111567704999
77,636231111567875094
77,636231111568040199
77,636231111568205287
77,636231111568375377
77,636231111568540469
77,636231111568705544
77,636231111568875644
77,636231111569040736
77,636231111569210831
77,636231111569375935
77,636231111569541203
77,636231111569711332
77,636231111569876197
77,636231111570041294
77,636231111570211572
77,636231111570376481
77,636231111570546575
77,636231111570711680
77,636231111570876948
77,636231111571047038
77,636231111571211942
77,636231111571377222
77,636231111571547138
77,636231111571712238
77,636231111571882320
77,636231111572047592
77,636231111572212505
77,636231111572382612
77,636231111572547871
77,636231111572712967
77,636231111572882891
77,636231111573047970
77,636231111573218065
77,636231111573383341
77,636231111573548262
77,636231111573718541
77,636231111573883449
77,636231111574048742
77,636231111574218803
77,636231111574383904
77,636231111574553810
77,636231111574719086
77,636231111574884178
77,636231111575054324
77,636231111575219198
77,636231111575384457
77,636231111575554552
77,636231111575719477
77,636231111575889559
77,636231111576054656
77,636231111576219735
77,636231111576390018
77,636231111576554939
77,636231111576720228
77,636231111576890318
77,636231111577055406
77,636231111577225300
77,636231111577390392
77,636231111577555672
77,636231111577725609
77,636231111577890671
77,636231111578060762
77,636231111578225862
76,636231111578390954
76,636231111578561045
76,636231111578726146
76,636231111578891233
